Time (s),Volume (m^3),Ar,He,Ne,N2,ethane(1),CH3(4),C2H5(5),C(3),H(6),C2H4(8)
3.928872468051729e-19,0.11224537200000001,0.0,0.0,0.0,0.0,0.99999999999999989,1.5811224277527741e-16,5.0925659962591607e-19,1.0195488923501993e-29,5.0925659963045905e-19,7.3692585474402513e-30
1.1000842910544841e-18,0.11224537200000002,0.0,0.0,0.0,0.0,0.99999999999999956,4.4271427977074353e-16,1.4259184789617216e-18,6.1580753097948643e-29,1.4259184789891615e-18,4.4510321626777631e-29
2.5144783795531067e-18,0.11224537200000007,0.0,0.0,0.0,0.0,0.999999999999999,1.0119183537615434e-15,3.2592422376699594e-18,2.9648481789538678e-28,3.2592422378020708e-18,2.1429803856314024e-28
5.3432665565503515e-18,0.11224537200000013,0.0,0.0,0.0,0.0,0.99999999999999778,2.1503265017426125e-15,6.9258897552329407e-18,1.2948270932842236e-27,6.9258897558099054e-18,9.3589583556188139e-28
1.100084291054484e-17,0.11224537200000026,0.0,0.0,0.0,0.0,0.99999999999999556,4.4271427977026302e-15,1.4259184790944928e-17,5.4056482272359884e-27,1.4259184793353647e-17,3.9071808821855493e-27
2.231599561853382e-17,0.1122453720000005,0.0,0.0,0.0,0.0,0.99999999999999101,8.9807753896141847e-15,2.8925774864713016e-17,2.2083836827821888e-26,2.8925774874553396e-17,1.5962108786914585e-26
4.494630103451178e-17,0.11224537200000101,0.0,0.0,0.0,0.0,0.99999999999998201,1.8088040573403366e-14,5.8258955021625611e-17,8.9266399359611135e-26,5.8258955061401999e-17,6.4521395850115174e-26
9.02069118664677e-17,0.11224537200000208,0.0,0.0,0.0,0.0,0.99999999999996325,3.6302570940845982e-14,1.1692531537295644e-16,3.5893626574476287e-25,1.1692531553289557e-16,2.594376950540117e-25
1.8072813353037952e-16,0.11224537200000412,0.0,0.0,0.0,0.0,0.99999999999992673,7.2731631675188345e-14,2.3425803622564086e-16,1.4394949637941897e-24,2.3425803686706824e-16,1.0404611942719903e-24
3.617705768582032e-16,0.11224537200000823,0.0,0.0,0.0,0.0,0.99999999999985345,1.4558975314170153e-13,4.6892347853110037e-16,5.7654882209521757e-24,4.6892348110015577e-16,4.1672717999503194e-24
7.238554635138505e-16,0.11224537200001646,0.0,0.0,0.0,0.0,0.9999999999997069,2.913059960660417e-13,9.3825436554238251e-16,2.3076978179045787e-23,9.3825437582529919e-16,1.6679947472289513e-23
1.4480252368251451e-15,0.11224537200003291,0.0,0.0,0.0,0.0,0.99999999999941369,5.8273848187997723e-13,1.8769161491663985e-15,9.2337971866672427e-23,1.8769161903114601e-15,6.6741516917002375e-23
2.8963647834477343e-15,0.11224537200006586,0.0,0.0,0.0,0.0,0.99999999999882683,1.1656034533688685e-12,3.7542397548202329e-15,3.6941201429831406e-22,3.7542399194272791e-15,2.6700953025540041e-22
5.793043876692913e-15,0.1122453720001317,0.0,0.0,0.0,0.0,0.99999999999765354,2.3313333957907338e-12,7.5088871197511011e-15,1.4777683191521981e-21,7.5088877782329256e-15,1.0681250711187597e-21
1.158640206318327e-14,0.1122453720002634,0.0,0.0,0.0,0.0,0.99999999999530698,4.6627932784107912e-12,1.5018182464105504e-14,5.9113138069427457e-21,1.5018185098140378e-14,4.2726743407170995e-21
2.3173118436163985e-14,0.11224537200052673,0.0,0.0,0.0,0.0,0.9999999999906144,9.3257130347562282e-12,3.0036775610783909e-14,2.3645736279817996e-20,3.0036786147140982e-14,1.7091046680402745e-20
4.634655118212541e-14,0.11224537200105354,0.0,0.0,0.0,0.0,0.99999999998122813,1.8651552511868345e-11,6.007397173601052e-14,9.4583907094449089e-20,6.0074013881893335e-14,6.836489495374237e-20
9.269341667404827e-14,0.11224537200210703,0.0,0.0,0.0,0.0,0.99999999996245659,3.7303231323777614e-11,1.2014840331387494e-13,3.7833755123686697e-19,1.2014857189846972e-13,2.7346107301227888e-19
1.8538714765789399e-13,0.1122453720042141,0.0,0.0,0.0,0.0,0.99999999992491284,7.4606588378336136e-11,2.4029742377870238e-13,1.5133540418753922e-18,2.4029809812044507e-13,1.0938478922627871e-18
3.707746096255854e-13,0.11224537200842818,0.0,0.0,0.0,0.0,0.99999999984982568,1.4921330021041266e-10,4.805960939403859e-13,6.0534237709757815e-18,4.8059879132397479e-13,4.3754036799557837e-18
7.415495335609683e-13,0.1122453720168564,0.0,0.0,0.0,0.0,0.99999999969965092,2.9842671476639863e-10,9.6119595115693736e-13,2.4213709727739253e-17,9.6120674080365964e-13,1.7501678224898612e-17
1e-12,0.11224537203371279,0.0,0.0,0.0,0.0,0.99999999959497077,4.0243663937884095e-10,1.2962039309583854e-12,4.9531144800932532e-17,1.2962260023677507e-12,3.5801277083033204e-17
1.483099381431734e-12,0.11224537203371279,0.0,0.0,0.0,0.0,0.99999999939930162,5.9685350744566501e-10,1.9224057328833532e-12,9.6854863693683132e-17,1.9224488923279951e-12,7.000715416769132e-17
2.2246492293024998e-12,0.11224537205056924,0.0,0.0,0.0,0.0,0.99999999909895199,8.9528026366976554e-10,2.8836255815514726e-12,2.0581659592521858e-16,2.8837172966194043e-12,1.4876583192818588e-16
3.707748925044031e-12,0.11224537208428206,0.0,0.0,0.0,0.0,0.99999999849825305,1.4921336303866359e-09,4.806105544707998e-12,5.6902234193816971e-16,4.8063591187547614e-12,4.1129819435004002e-16
5.042538651211409e-12,0.11224537211462364,0.0,0.0,0.0,0.0,0.99999999795762351,2.029301542626769e-09,6.5363700346234846e-12,1.0132601602501129e-15,6.5368215853154573e-12,7.324054261113032e-16
6.377328377378787e-12,0.1122453721449652,0.0,0.0,0.0,0.0,0.99999999741699397,2.5664693302064128e-09,8.2666689477136766e-12,1.5817133265225881e-15,8.2673738411554944e-12,1.1433033841711019e-15
7.712118103546165e-12,0.1122453721753068,0.0,0.0,0.0,0.0,0.99999999687636409,3.1036370000146057e-09,9.9970003754962055e-12,2.267501033248863e-15,9.9980109139980122e-12,1.6390197675264765e-15
1e-11,0.11224537223599002,0.0,0.0,0.0,0.0,0.99999999594970301,4.0243632274158403e-09,1.2962913734281626e-11,3.6504297555788816e-15,1.2964540644316279e-11,2.6386698951162055e-15
1.0381697555880921e-11,0.11224537223599002,0.0,0.0,0.0,0.0,0.99999999579510379,4.1779720708452249e-09,1.3457737374946404e-11,3.9066556539064324e-15,1.3459478487139316e-11,2.8238839234090381e-15
1.3051277008215677e-11,0.1122453722966732,0.0,0.0,0.0,0.0,0.99999999471384304,5.2523067062533909e-09,1.691859454822277e-11,5.9795263238208267e-15,1.6921259591337669e-11,4.3222847193608874e-15
1.5720856460550434e-11,0.1122453723573565,0.0,0.0,0.0,0.0,0.99999999363258119,6.3266408767820889e-09,2.0379580035667868e-11,8.5155308668776187e-15,2.0383375503769635e-11,6.1554994843191531e-15
2.1060015365219946e-11,0.11224537247872315,0.0,0.0,0.0,0.0,0.99999999147005569,8.4753077970577817e-09,2.7301943112894905e-11,1.5003037819051525e-14,2.7308630689178091e-11,1.0845307051117401e-14
2.6399174269889458e-11,0.11224537260008995,0.0,0.0,0.0,0.0,0.99999998930752687,1.0623972828836389e-08,3.4224827295828545e-11,2.3371990754160732e-14,3.4235246167938052e-11,1.6895431431833423e-14
3.7077492079228486e-11,0.11224537284282401,0.0,0.0,0.0,0.0,0.99999998498245912,1.4921297223043849e-08,4.8072159481032391e-11,4.5757981258318583e-14,4.8092561247317578e-11,3.3079873771755239e-14
5.843412769790654e-11,0.11224537332829397,0.0,0.0,0.0,0.0,0.99999997633228532,2.3515923332584197e-08,7.5773075908321782e-11,1.131230882471543e-13,7.5823531884521231e-11,8.1789532223305652e-14
9.999999999999999e-11,0.11224537429924127,0.0,0.0,0.0,0.0,0.99999995949652454,4.0243337049963631e-08,1.2971053417487464e-10,3.3060695288067769e-13,1.2985810458573522e-10,2.3908868187061804e-13
1.0114739893526263e-10,0.11224537429924127,0.0,0.0,0.0,0.0,0.99999995903178152,4.0705084827463634e-08,1.3119989009280943e-10,3.3822895036912219e-13,1.3135086497775605e-10,2.4460191765784612e-13
1.4386067017261873e-10,0.11224537527019832,0.0,0.0,0.0,0.0,0.99999994173107065,5.7894125349819544e-08,1.8665997653470065e-10,6.8383536944600321e-13,1.8696542285967698e-10,4.9464084721113006e-13
1.8657394140997483e-10,0.11224537624116514,0.0,0.0,0.0,0.0,0.99999992443015273,7.508304488978385e-08,2.4215328477073711e-10,1.1499421108139281e-12,2.4266725550927595e-10,8.3195642467630023e-13
2.2928721264733093e-10,0.11224537721214171,0.0,0.0,0.0,0.0,0.99999990712902731,9.2271843437473439e-08,2.9767976262070781e-10,1.7365486148183905e-12,2.9845641428854312e-10,1.2566001413268271e-12
3.1471375512204313e-10,0.11224537915412439,0.0,0.0,0.0,0.0,0.9999998725261543,1.2664907751985649e-07,4.0883203397895451e-10,3.2712583628585576e-12,4.1029689990967623e-10,2.3680621467901062e-12
4.001402975967553e-10,0.11224538109614625,0.0,0.0,0.0,0.0,0.99999983792245128,1.6102582751871274e-07,5.2011637317412447e-10,5.2879591196028912e-12,5.2248728958027072e-10,3.8294377628745442e-12
4.855668400714676e-10,0.11224538303820734,0.0,0.0,0.0,0.0,0.99999980331791849,1.9540209335177716e-07,6.3153234193503464e-10,7.786644983198259e-12,6.3502801346658186e-10,5.6411582573728159e-12
6.56419925020892e-10,0.11224538692244762,0.0,0.0,0.0,0.0,0.99999973410636089,2.6415317220095503e-07,8.5475747382467486e-10,1.4229948461698692e-11,8.6116212598705044e-10,1.0317300312037142e-11
8.272730099703164e-10,0.11224539080684541,0.0,0.0,0.0,0.0,0.99999966489147918,3.3290231343080032e-07,1.0785040628322301e-09,2.2601122450090274e-11,1.088702540664241e-09,1.639980014105049e-11
9.981260949197408e-10,0.11224539469140114,0.0,0.0,0.0,0.0,0.99999959567327013,4.0164951640886279e-07,1.3027687848534731e-09,3.2900120944195717e-11,1.3176525182814838e-09,2.3891927186103251e-11
9.999999999999999e-10,0.11224539857611504,0.0,0.0,0.0,0.0,0.99999959491407109,4.0240352033324496e-07,1.3052313654802596e-09,3.3023767571267678e-11,1.320171452958177e-09,2.3981927524592776e-11
1.1689791798691651e-09,0.11224539857611504,0.0,0.0,0.0,0.0,0.99999952645173218,4.7039478050313566e-07,1.5275483396276691e-09,4.5126898041087104e-11,1.5480152957315366e-09,3.279692707247749e-11
1.510685349768014e-09,0.11224540634601889,0.0,0.0,0.0,0.0,0.99999938799865762,6.0787948950927894e-07,1.9786388718462628e-09,7.5363604670231594e-11,2.0129920713340864e-09,5.4858402079028041e-11
1.818220902676978e-09,0.11224541333947666,0.0,0.0,0.0,0.0,0.9999992633794792,7.3160909028421519e-07,2.3863483707822768e-09,1.0916918379727727e-10,2.4363350144461667e-09,7.9577913730583768e-11
2.125756455585942e-09,0.11224542033345213,0.0,0.0,0.0,0.0,0.99999913874947555,8.5533239923323655e-07,2.7956754913436556e-09,1.4922005374858455e-10,2.8643048743371889e-09,1.0892471837105877e-10
2.433292008494906e-09,0.11224542732794693,0.0,0.0,0.0,0.0,0.99999901410863312,9.7904941266433467e-07,3.206601686860754e-09,1.9551594864180486e-10,3.296919824102709e-09,1.4291704294187959e-10
2.74082756140387e-09,0.11224543432296301,0.0,0.0,0.0,0.0,0.99999888945693716,1.1027601268854326e-06,3.6191086230044552e-09,2.4805660325295215e-10,3.7341978234525745e-09,1.8157290185053501e-10
3.048363114312834e-09,0.11224544131850207,0.0,0.0,0.0,0.0,0.99999876479437511,1.2264645382044576e-06,4.0331781746008537e-09,3.0684175302191436e-10,4.1761566219043563e-09,2.2491010016270809e-10
3.663434220130762e-09,0.1122454553111561,0.0,0.0,0.0,0.0,0.99999851543659912,1.4738544373678528e-06,4.8659335789241542e-09,4.4314448290074553e-10,5.0741866538532616e-09,3.2569877891492605e-10
4.27850532594869e-09,0.11224546930592283,0.0,0.0,0.0,0.0,0.99999826603520103,1.7212190806172337e-06,5.704726904064104e-09,6.044220348914239e-10,5.9911478899753068e-09,4.4542151040131237e-10
4.893576431766618e-09,0.11224548330281549,0.0,0.0,0.0,0.0,0.99999801659008025,1.9685584384143235e-06,6.5494204672296002e-09,7.9067231676257991e-10,6.9271749698681538e-09,5.8421340970056474e-10
5.508647537584546e-09,0.11224549730184717,0.0,0.0,0.0,0.0,0.99999776710113975,2.2158724812195228e-06,7.3998796658776994e-09,1.0018932471247454e-09,7.8823994359615768e-09,7.4220650860430873e-10
6.123718643402474e-09,0.1122455113030305,0.0,0.0,0.0,0.0,0.99999751756828514,2.4631611794918435e-06,8.2559727759893763e-09,1.2380827551521465e-09,8.8569499357537852e-09,9.1952995745827556e-10
6.738789749220402e-09,0.11224552530637784,0.0,0.0,0.0,0.0,0.99999726799142441,2.7104245036889922e-06,9.1175709337191606e-09,1.4992387807907909e-09,9.8509522399156928e-09,1.1163100434936592e-09
7.589834739145023e-09,0.11224554468574252,0.0,0.0,0.0,0.0,0.99999692259091522,3.0525092489945531e-06,1.0318568412692462e-08,1.901755938277733e-09,1.1258611849513545e-08,1.4208996875494075e-09
8.440879729069644e-09,0.11224556406930389,0.0,0.0,0.0,0.0,0.99999657710576184,3.3945452809158406e-06,1.1529540145861941e-08,2.352062073942429e-09,1.2704062736387893e-08,1.763292332234188e-09
9.291924718994264e-09,0.11224558345709161,0.0,0.0,0.0,0.0,0.99999623153574846,3.7365325211806694e-06,1.2750171553347751e-08,2.8501518382928457e-09,1.4187611121282677e-08,2.143795703113882e-09
9.999999999999999e-09,0.11224560284913442,0.0,0.0,0.0,0.0,0.99999594395430036,4.021031014151675e-06,1.3772887533203363e-08,3.3009790402788552e-09,1.5451182008195589e-08,2.4896367576355374e-09
1.0142969708918885e-08,0.11224560284913442,0.0,0.0,0.0,0.0,0.99999588588066968,4.0784708915105105e-06,1.3980157833880993e-08,3.396019923848565e-09,1.5709553382156361e-08,2.5627077360619635e-09
1.0994014698843506e-08,0.11224562224545964,0.0,0.0,0.0,0.0,0.99999554014032832,4.4203603136198786e-06,1.521920349679744e-08,3.9896610658136849e-09,1.7270176521536961e-08,3.0203170452766007e-09
1.1845059688768127e-08,0.11224564164609398,0.0,0.0,0.0,0.0,0.99999519431453698,4.7622007092162236e-06,1.6467022217034082e-08,4.6310700423814981e-09,1.886975831118382e-08,3.5169030682656164e-09
1.2696104678692748e-08,0.11224566105106278,0.0,0.0,0.0,0.0,0.99999484840311748,5.1039919999993524e-06,1.7723336417866079e-08,5.3202416753364073e-09,2.0508567708758372e-08,4.0527364831143497e-09
1.3547149668617368e-08,0.11224568046039063,0.0,0.0,0.0,0.0,0.99999450240590004,5.4457341076613349e-06,1.898787715208754e-08,6.0571708302611007e-09,2.2186864976414515e-08,4.6280793272940334e-09
1.4398194658541989e-08,0.11224569987410114,0.0,0.0,0.0,0.0,0.99999415632272237,5.7874269538860309e-06,2.0260383711140266e-08,6.8418524171080772e-09,2.3904902071089553e-08,5.2431853885286813e-09
1.524923964846661e-08,0.1122457192922171,0.0,0.0,0.0,0.0,0.99999381015343169,6.1290704603489618e-06,2.1540603483706489e-08,7.6742813903911806e-09,2.56629227857225e-08,5.8983003462035924e-09
1.610028463839123e-08,0.11224573871476003,0.0,0.0,0.0,0.0,0.9999934638978818,6.4706645487167299e-06,2.2828291487742255e-08,8.5544527498573275e-09,2.7461163216548773e-08,6.5936622393319228e-09
1.6951329628315848e-08,0.1122457581417513,0.0,0.0,0.0,0.0,0.9999931175559339,6.8122091406470412e-06,2.4123210346276205e-08,9.4823615405004664e-09,2.9299851787287293e-08,7.3295014907557794e-09
1.7802374618240467e-08,0.1122457775732108,0.0,0.0,0.0,0.0,0.99999277112745844,7.153704157788522e-06,2.5425130064592816e-08,1.0458002852870772e-08,3.1179209471637654e-08,8.1060411299578081e-09
1.8653419608165086e-08,0.1122457970091579,0.0,0.0,0.0,0.0,0.99999242461233173,7.4951495217804087e-06,2.6733827773901497e-08,1.1481371823432834e-08,3.3099450049251275e-08,8.923497049391303e-09
1.9504464598089705e-08,0.11224581644961115,0.0,0.0,0.0,0.0,0.99999207801043599,7.8365451542522519e-06,2.8049087413206736e-08,1.2552463635008017e-08,3.5060780423404792e-08,9.7820783226030408e-09
2.0355509588014325e-08,0.11224583589458845,0.0,0.0,0.0,0.0,0.99999173132166208,8.1778909768237476e-06,2.93706995744175e-08,1.3671273516969198e-08,3.7063400775705799e-08,1.0681987359128753e-08
2.1206554577938944e-08,0.11224585534410675,0.0,0.0,0.0,0.0,0.99999138454590575,8.5191869111045113e-06,3.0698461233305576e-08,1.4837796745604793e-08,3.9107504834747822e-08,1.1623420173523523e-08
2.2057599567863563e-08,0.11224587479818254,0.0,0.0,0.0,0.0,0.99999103768307074,8.8604328786940443e-06,3.2032175712804356e-08,1.6052028644124364e-08,4.119327991283186e-08,1.2606566422075934e-08
2.2908644557788182e-08,0.11224589425683136,0.0,0.0,0.0,0.0,0.9999906907330649,9.2016288011814462e-06,3.3371652300703516e-08,1.7313964583197547e-08,4.3320907287684743e-08,1.3631609785089388e-08
2.37596895477128e-08,0.11224591372006848,0.0,0.0,0.0,0.0,0.99999034369580353,9.5427746001454183e-06,3.471670633529977e-08,1.8623599980751434e-08,4.5490562117071116e-08,1.4698727881261392e-08
2.461073453763742e-08,0.11224593318790785,0.0,0.0,0.0,0.0,0.99998999657120713,9.883870197153898e-06,3.6067158596417496e-08,1.9980930302877008e-08,4.770241404676574e-08,1.5808092876612629e-08
2.546177952756204e-08,0.11224595266036373,0.0,0.0,0.0,0.0,0.99998964935920154,1.0224915513764074e-05,3.7422835503852262e-08,2.1385951063438689e-08,4.9956627012585122e-08,1.6959871286085771e-08
2.631282451748666e-08,0.11224597213744901,0.0,0.0,0.0,0.0,0.99998930205971825,1.05659104715223e-05,3.8783568894089862e-08,2.2838657824348029e-08,5.2253359463377497e-08,1.8154224196817823e-08
2.7163869507411278e-08,0.11224599161917619,0.0,0.0,0.0,0.0,0.99998895467269411,1.0906854991963952e-05,4.0149195855611522e-08,2.4339046195761978e-08,5.4592764525516395e-08,1.9391307432833409e-08
2.8014914497335897e-08,0.1122460111055573,0.0,0.0,0.0,0.0,0.9999886071980707,1.1247748996613222e-05,4.15195583286836e-08,2.5887111836638282e-08,5.6974990402490405e-08,2.0671271955222531e-08
2.8865959487260516e-08,0.11224603059660389,0.0,0.0,0.0,0.0,0.99998825963579563,1.1588592406983132e-05,4.2894503191078912e-08,2.74828504545363e-08,5.940018028944084e-08,2.1994263776449096e-08
2.9717004477185135e-08,0.11224605009232659,0.0,0.0,0.0,0.0,0.99998791198581882,1.1929385144575323e-05,4.4273881824829932e-08,2.9126257806221161e-08,6.1868472805720636e-08,2.3360424393555914e-08
3.056804946710976e-08,0.11224606959273623,0.0,0.0,0.0,0.0,0.99998756424809709,1.2270127130880199e-05,4.5657550507835559e-08,3.0817329696967753e-08,6.4380001604129099e-08,2.4769890396630646e-08
3.1419094457034376e-08,0.11224608909784221,0.0,0.0,0.0,0.0,0.99998721642259081,1.2610818287376702e-05,4.7045369827223908e-08,3.2556061981403071e-08,6.6934895956577693e-08,2.6222794055378422e-08
3.2270139446958996e-08,0.11224610860765417,0.0,0.0,0.0,0.0,0.99998686850926477,1.2951458535532281e-05,4.8437204571554908e-08,3.4342450563608049e-08,6.9533280861789096e-08,2.7719263426921125e-08
3.3121184436883615e-08,0.11224612812218096,0.0,0.0,0.0,0.0,0.99998652050808856,1.3292047796802805e-05,4.9832923606513282e-08,3.6176491397226894e-08,7.217527716949588e-08,2.9259422480104759e-08
3.4364868592165565e-08,0.11224615664845096,0.0,0.0,0.0,0.0,0.99998601179460878,1.3789679878047474e-05,5.187929659237664e-08,3.8942380382082508e-08,7.6114862874989779e-08,3.158897333234783e-08
3.5608552747447516e-08,0.11224618518483248,0.0,0.0,0.0,0.0,0.9999855028933915,1.4287202659921807e-05,5.3933313213853665e-08,4.1810013593178764e-08,8.0148180910912296e-08,3.4012440645118697e-08
3.685223690272947e-08,0.1122462137313487,0.0,0.0,0.0,0.0,0.99998499380438588,1.4784615897167564e-05,5.5994609376071442e-08,4.4779378974245525e-08,8.4275562447088043e-08,3.6530166022631043e-08
3.809592105801142e-08,0.11224624228801997,0.0,0.0,0.0,0.0,0.99998448452755651,1.5281919344473099e-05,5.8062837058098439e-08,4.7850464697168537e-08,8.8497322249500442e-08,3.914247494428526e-08
3.933960521329337e-08,0.11224627085486585,0.0,0.0,0.0,0.0,0.99998397506288395,1.5779112756473303e-05,6.0137663692767734e-08,5.1023259162456889e-08,9.2813759300007555e-08,4.1849677384848368e-08
4.058328936857532e-08,0.11224629943190353,0.0,0.0,0.0,0.0,0.99998346541036398,1.6276195887749592e-05,6.2218771559372881e-08,5.4297750999630082e-08,9.7225157403259534e-08,4.4652068421758368e-08
4.307065767913922e-08,0.1122463566166166,0.0,0.0,0.0,0.0,0.99998244554183513,1.7270030326188899e-05,6.6398630554905649e-08,6.115178245542273e-08,1.0633389988075695e-07,5.0543525890637029e-08
4.555802598970312e-08,0.11224641384226769,0.0,0.0,0.0,0.0,0.9999814249222122,1.8263420695374676e-05,7.0600145207208049e-08,6.8412472697400801e-08,1.1582554055888746e-07,5.6818934024540093e-08
4.804539430026702e-08,0.11224647110894267,0.0,0.0,0.0,0.0,0.99998040355193862,1.9256365030040483e-05,7.4821244512449444e-08,7.6079739048945822e-08,1.2570186716113546e-07,6.34801808488159e-08
5.0532762610830925e-08,0.11224652841670676,0.0,0.0,0.0,0.0,0.99997938143164067,2.0248861364076525e-05,7.9060037730799178e-08,8.4153502533380082e-08,1.3596448181704709e-07,7.0528973309813977e-08
