Time (s),Volume (m^3),Ar,He,Ne,N2,ethane(1),CH3(4),C2H5(5),C(3),H(6),C2H4(8),H2(12),C3H7(14)
4.3038616527199004e-19,0.11224537200000001,0.0,0.0,0.0,0.0,0.99999999999999978,1.7320328397001465e-16,5.5786288558720664e-19,1.2234579601619045e-29,5.578628855873507e-19,8.8431025174986154e-30,2.6537558198915153e-30,1.0536995497764081e-57
1.2050812627615721e-18,0.11224537200000002,0.0,0.0,0.0,0.0,0.99999999999999956,4.8496919511600132e-16,1.562016079663765e-18,7.3896860793774566e-29,1.5620160796646355e-18,5.3412339206250521e-29,1.6028685152316462e-29,3.3129999755809855e-56
2.7544714577407362e-18,0.11224537200000007,0.0,0.0,0.0,0.0,0.999999999999999,1.1085010174078159e-15,3.5703224678952262e-18,3.5578157481501467e-28,3.5703224678994178e-18,2.5715742121724274e-28,7.7171219245020828e-29,7.391120693450202e-55
5.8532518476990645e-18,0.11224537200000013,0.0,0.0,0.0,0.0,0.99999999999999767,2.3555646619908076e-15,7.5869352446715275e-18,1.5537916094049231e-27,7.58693524468983e-18,1.1230740198089491e-27,3.3702698915283646e-28,1.3842751051878404e-53
1.2050812627615722e-17,0.11224537200000027,0.0,0.0,0.0,0.0,0.99999999999999512,4.8496919511542468e-15,1.5620160799477639e-17,6.4867741047721514e-27,1.5620160799554048e-17,4.6886129555573888e-27,1.4070213359460064e-27,2.3909909938525225e-52
2.4445934187449035e-17,0.11224537200000055,0.0,0.0,0.0,0.0,0.99999999999999012,9.8379465294709468e-15,3.1686611914103931e-17,2.6500588800237846e-26,3.1686611914416085e-17,1.915451378360351e-26,5.7481412581457976e-27,3.9726672784600439e-51
4.923617730711566e-17,0.11224537200000109,0.0,0.0,0.0,0.0,0.99999999999998024,1.9814455686063635e-14,6.3819514163412735e-17,1.0711961700994693e-25,6.3819514164674505e-17,7.742560728420577e-26,2.3234906022625534e-26,6.4764502542556162e-50
9.881666354644892e-17,0.11224537200000229,0.0,0.0,0.0,0.0,0.99999999999995981,3.9767473999086118e-14,1.2808531874225522e-16,4.3072326870329737e-25,1.2808531874732878e-16,3.113249618099546e-25,9.3426535276916332e-26,1.0459484269255998e-48
1.9797763602511542e-16,0.1122453720000045,0.0,0.0,0.0,0.0,0.99999999999991995,7.9673510624479662e-14,2.5661692822083992e-16,1.7273929531763035e-24,2.5661692824118731e-16,1.2485523421316651e-24,3.7468219304691001e-25,1.68133148683022e-47
3.9629958098244843e-16,0.11224537200000902,0.0,0.0,0.0,0.0,0.99999999999983957,1.5948558387266088e-13,5.136801484616079e-16,6.9185818463921324e-24,5.1368014854310345e-16,5.000721797232216e-24,1.5006831085132362e-24,2.6963978556414893e-46
7.929434708971145e-16,0.11224537200001805,0.0,0.0,0.0,0.0,0.99999999999967859,3.1910973035859968e-13,1.0278065940775381e-15,2.7692357729299803e-23,1.0278065944037326e-15,2.0015919560272068e-23,6.0066433621967692e-24,4.3192566547480312e-45
1.5862312507264465e-15,0.11224537200003604,0.0,0.0,0.0,0.0,0.99999999999935762,6.3835802328878393e-13,2.0560595058469761e-15,1.1080550187619349e-22,2.0560595071521812e-15,8.0089751097788675e-23,2.4034397744931604e-23,6.9148278342080362e-44
3.1728068103851106e-15,0.11224537200007213,0.0,0.0,0.0,0.0,0.99999999999871481,1.2768546089823765e-12,4.112565411536158e-15,4.4329415965568721e-22,4.1125654167578366e-15,3.2041116301922409e-22,9.6153243486786182e-23,1.1066934489910431e-42
6.345957929702438e-15,0.11224537200014427,0.0,0.0,0.0,0.0,0.99999999999742961,2.553847779702462e-12,8.2255775515157184e-15,1.7733209528486475e-21,8.2255775724042172e-15,1.2817490206529385e-21,3.8464429467534694e-22,1.7709648057049787e-41
1.2692260168337095e-14,0.11224537200028852,0.0,0.0,0.0,0.0,0.99999999999485922,5.1078341184742268e-12,1.6451603145879403e-14,7.093572447299633e-21,1.6451603229437453e-14,5.1272051783255688e-21,1.538639930266386e-21,2.8337429718855175e-40
2.5384864645606406e-14,0.11224537200057702,0.0,0.0,0.0,0.0,0.99999999998971845,1.0215806785344142e-11,3.2903659592223328e-14,2.8374867048695263e-20,3.2903659926467543e-14,2.0509241721225454e-20,6.1546860894604602e-21,4.5341323034316657e-39
5.077007360014503e-14,0.11224537200115406,0.0,0.0,0.0,0.0,0.99999999997943678,2.043175207638951e-11,6.5807793515363573e-14,1.1350062254332827e-19,6.580779485239578e-14,8.2037831380701334e-20,2.4619004001151006e-20,7.2546756972530217e-38
1.0154049150922228e-13,0.11224537200230818,0.0,0.0,0.0,0.0,0.99999999995887301,4.0863642487702352e-11,1.3161614548334311e-13,4.5400479743489836e-19,1.3161615083183322e-13,3.2815323430181143e-19,9.8476590527837988e-20,1.1607369676580999e-36
2.030813273273768e-13,0.11224537200461632,0.0,0.0,0.0,0.0,0.99999999991774613,8.172742262721643e-11,2.6323318590521547e-13,1.8160237927067556e-18,2.6323320730190269e-13,1.3126181930089964e-18,3.939079530361835e-19,1.8571181833534002e-35
4.061629989636858e-13,0.11224537200923264,0.0,0.0,0.0,0.0,0.99999999983549204,1.6345498017379734e-10,5.2646861268554714e-13,7.2641042842413746e-18,5.2646869829378371e-13,5.2504947894810198e-18,1.5756385290223745e-18,2.9711737967736877e-34
8.123263422363038e-13,0.11224537201846525,0.0,0.0,0.0,0.0,0.99999999967098396,3.2691008433716402e-10,1.0529448499360322e-12,2.9056434623563155e-17,1.0529451925402251e-12,2.1002115238592451e-17,6.3025958303197628e-18,4.7531730949391555e-33
1e-12,0.11224537203693055,0.0,0.0,0.0,0.0,0.99999999959497055,4.0243687346766828e-10,1.2962157987565788e-12,4.9195361273791885e-17,1.296216379134815e-12,3.5558845715992557e-17,1.0670975961116033e-17,2.1219977366006489e-32
1.6246530287815399e-12,0.11224537203693055,0.0,0.0,0.0,0.0,0.99999999934196782,6.5382024894466726e-10,2.1059188587440965e-12,1.1622576754553787e-16,2.1059202305294905e-12,8.4009469467450226e-17,2.521069299779192e-17,7.6028090998737186e-32
2.436979715326776e-12,0.1122453720553958,0.0,0.0,0.0,0.0,0.99999999901295145,9.807303698059827e-10,3.1589144013204513e-12,2.469797677329216e-16,3.1589173183739562e-12,1.785215813165047e-16,5.3573170697528146e-17,2.8981709697194299e-31
4.061633088417248e-12,0.11224537209232636,0.0,0.0,0.0,0.0,0.99999999835491837,1.6345504366510238e-09,5.2649916182756524e-12,6.8282639574489616e-16,5.2649996973950488e-12,4.9356998963918947e-16,1.4811723206890342e-16,2.3820575841724671e-30
5.5238211241986724e-12,0.11224537212556392,0.0,0.0,0.0,0.0,0.99999999776268811,2.2229883554454701e-09,7.1605306840932275e-12,1.2159114457378869e-15,7.1605450875178339e-12,8.7891407824776882e-16,2.6375664307551114e-16,6.9458766372570962e-30
6.986009159980097e-12,0.11224537215880147,0.0,0.0,0.0,0.0,0.99999999717045795,2.8114261246472642e-09,9.0561433859086557e-12,1.898054813361519e-15,9.0561658964835718e-12,1.3720164169633661e-15,4.1173372282401595e-16,1.5889314323576856e-29
8.448197195761522e-12,0.11224537219203898,0.0,0.0,0.0,0.0,0.99999999657822702,3.3998637525232146e-09,1.0951825642089118e-11,2.7209995327034389e-15,1.0951857949016369e-11,1.9669115170351613e-15,5.9025828705707586e-16,3.1415253578022747e-29
1e-11,0.11224537225851411,0.0,0.0,0.0,0.0,0.99999999594969968,4.0243655038423987e-09,1.2963748545737951e-11,3.7114532692200645e-15,1.2963792659326935e-11,2.6829082668532587e-15,8.0512483774999877e-16,5.7146034823355715e-29
1.1372573267324372e-11,0.11224537225851411,0.0,0.0,0.0,0.0,0.9999999953937655,4.5767386857318339e-09,1.4743348763650553e-11,4.6879837924882986e-15,1.4743404530249029e-11,3.3888488495255594e-15,1.0169736540425325e-15,8.7846174883325351e-29
1.4296949338887221e-11,0.1122453723249893,0.0,0.0,0.0,0.0,0.99999999420930274,5.7536130964327858e-09,1.8535128964389681e-11,7.1754269333701152e-15,1.8535214477758727e-11,5.1870846277486523e-15,1.5566144765396925e-15,1.9664154658859467e-28
1.7221325410450072e-11,0.1122453723914645,0.0,0.0,0.0,0.0,0.99999999302483866,6.9304869492773638e-09,2.2327183663862697e-11,1.0218630301321247e-14,2.2327305672961396e-11,7.3871677495450758e-15,2.2168480495366307e-15,3.8840192656585161e-28
2.307007755357577e-11,0.11224537252441509,0.0,0.0,0.0,0.0,0.99999999065590761,9.2842329500238753e-09,2.9912131912528196e-11,1.8003633081072265e-14,2.9912347767561804e-11,1.3015682992984782e-14,3.905938935644859e-15,1.2381675349968627e-27
2.891882969670147e-11,0.11224537265736577,0.0,0.0,0.0,0.0,0.99999998828697256,1.1637976684566332e-08,3.7498195031396737e-11,2.8046369080554555e-14,3.7498532668634897e-11,2.0277047027404695e-14,6.0850438680509583e-15,2.9836824886185218e-27
4.061633398295287e-11,0.11224537292326786,0.0,0.0,0.0,0.0,0.99999998354908803,1.6345457350397425e-08,5.267366723468097e-11,5.4909535922873932e-14,5.2674334026947339e-11,3.9702819144793994e-14,1.191465505017986e-14,1.1869728918011614e-26
6.401134255545566e-11,0.11224537345507413,0.0,0.0,0.0,0.0,0.99999997407326757,2.5760391467200318e-08,8.3037990415972749e-11,1.3574758855128322e-13,8.3039668973055846e-11,9.8175224732309151e-14,2.9462151915187196e-14,7.7550988017397526e-26
9.999999999999999e-11,0.11224537451869551,0.0,0.0,0.0,0.0,0.99999995949642906,4.0243360352899066e-08,1.297823776625736e-10,3.3067877769834445e-13,1.2978659094676716e-10,2.3924300387909667e-13,7.1796972933645391e-14,5.2159395501869891e-25
1.1080135970046126e-10,0.11224537451869551,0.0,0.0,0.0,0.0,0.99999995512141593,4.4590150830332335e-08,1.4382010890814527e-10,4.0587429927467259e-13,1.4382531430245498e-10,2.9367084533824093e-13,8.8130998546760133e-14,7.3598031855356177e-25
1.5759137684546685e-10,0.11224537558232861,0.0,0.0,0.0,0.0,0.99999993616928429,6.3419765023754671e-08,2.0467346513815848e-10,8.2060139202737623e-13,2.0468431799022354e-10,5.9398465537280285e-13,1.7825753332933304e-13,2.7697366432801781e-24
2.0438139399047244e-10,0.11224537664597348,0.0,0.0,0.0,0.0,0.99999991721687187,8.2249234034547125e-08,2.6559797767056276e-10,1.3799285061593998e-12,2.65616760783418e-10,9.9923381904628632e-13,2.998780095463223e-13,7.3751125001990457e-24
2.51171411135478e-10,0.11224537770963018,0.0,0.0,0.0,0.0,0.99999989826417945,1.0107855784973526e-07,3.2659356230277637e-10,2.0838548883149392e-12,3.2662272579190875e-10,1.509539048081515e-12,4.5302985937393821e-13,1.6145180753954159e-23
3.447514454254892e-10,0.11224537983697887,0.0,0.0,0.0,0.0,0.99999986035795174,1.387367698457595e-07,4.4879763634644004e-10,3.9255020955753893e-12,4.4885552935217198e-10,2.84576412131676e-12,8.5406657071717914e-13,5.4168522024979527e-23
4.383314797155004e-10,0.11224538196437484,0.0,0.0,0.0,0.0,0.99999982245059993,1.7639440090898134e-07,5.7128501442349164e-10,6.345535764062522e-12,5.713833915345088e-10,4.6036247671216047e-12,1.3816683297177282e-12,1.3604707875587473e-22
5.319115140055116e-10,0.1122453840918182,0.0,0.0,0.0,0.0,0.99999978454212257,2.1405145093127382e-07,6.9405499092396601e-10,9.3439481190097621e-12,6.9420700728829582e-10,6.7841345327946185e-12,2.0361522914118717e-12,2.8715855211184313e-22
6.254915482955228e-10,0.11224538621930893,0.0,0.0,0.0,0.0,0.99999974663251967,2.5170791980556141e-07,8.1710686979719444e-10,1.2920731316183538e-11,8.1732706194665422e-10,9.3882954821705542e-12,2.8178337498878153e-12,5.3898847511237078e-22
8.126516168755451e-10,0.11224539047443338,0.0,0.0,0.0,0.0,0.99999967080992902,3.2701911369938291e-07,1.0640536895214038e-09,2.1809380071467656e-11,1.0644590918420402e-09,1.5871395935602109e-11,4.7640047410556627e-12,1.5057241583772158e-21
9.810956785975654e-10,0.11224539430420882,0.0,0.0,0.0,0.0,0.99999960256573328,3.9479719963840118e-07,1.2872632480585459e-09,3.1787116209742911e-11,1.2878983209867659e-09,2.316474479880232e-11,6.953650232953977e-12,3.1330569832156934e-21
9.999999999999999e-10,0.11224539813413961,0.0,0.0,0.0,0.0,0.99999959490652146,4.0240375398878308e-07,1.3123702817036418e-09,3.3023857385931012e-11,1.3130352087371874e-09,2.4069770871147221e-11,7.2253786647827783e-12,3.373842144917308e-21
1.1495397403195856e-09,0.11224539813413961,0.0,0.0,0.0,0.0,0.99999953431787059,4.6257340104481174e-07,1.5113758318664123e-09,4.3638656114808e-11,1.5123081890644101e-09,3.1845704995588504e-11,9.5601983449633476e-12,5.7776898950275408e-21
1.3179838020416058e-09,0.11224540196422642,0.0,0.0,0.0,0.0,0.99999946606633339,5.3034771731250001e-07,1.7363876097068335e-09,5.7363955704604742e-11,1.7376924666036064e-09,4.1919864372683448e-11,1.2585458081762225e-11,9.7676891081732745e-21
1.486427863763626e-09,0.1122454057944698,0.0,0.0,0.0,0.0,0.99999939781111546,5.9812014783524687e-07,1.9622947809114092e-09,7.2962970917673985e-11,1.9640548934707346e-09,5.339278771214864e-11,1.603124598911526e-11,1.5466381478960936e-20
1.6548719254856463e-09,0.11224540962487037,0.0,0.0,0.0,0.0,0.99999932955221005,6.6589069200667288e-07,2.1890935744825822e-09,9.0435657710893591e-11,2.1913991797655917e-09,6.6270017664487807e-11,1.9899386190804387e-11,2.3268051251946433e-20
1.9917600489296864e-09,0.11224541728614527,0.0,0.0,0.0,0.0,0.99999919302331075,8.0142611886988478e-07,2.645351084596012e-09,1.3100187001776264e-10,2.6490480308123784e-09,9.6259460980034798e-11,2.8910052909848307e-11,4.6878211022967626e-20
2.328648172373727e-09,0.11224542494805582,0.0,0.0,0.0,0.0,0.99999905647958176,9.3695399305043686e-07,3.1051305592058024e-09,1.7906224092113207e-10,3.1106681118685816e-09,1.3193208621428869e-10,3.9632189506579792e-11,8.4246427828456617e-20
2.6655362958177673e-09,0.11224543261060654,0.0,0.0,0.0,0.0,0.9999989199209709,1.0724743096966376e-06,3.5684029099811963e-09,2.3461641932210537e-10,3.5762880213165321e-09,1.733314058630692e-10,5.2080640673710585e-11,1.3936215119552531e-19
3.339312542705848e-09,0.11224544793764679,0.0,0.0,0.0,0.0,0.99999864675889394,1.3434922509825927e-06,4.5053121170614512e-09,3.6820479747513237e-10,4.5196394831988452e-09,2.7348244485901058e-10,8.2216363372492176e-11,3.1974483167712372e-19
3.924978181220197e-09,0.11224546126247276,0.0,0.0,0.0,0.0,0.99999840926972794,1.5790442139866545e-06,5.3307841794792882e-09,5.0867202085648335e-10,5.3528873639493825e-09,3.7955105777211399e-10,1.1416345568476816e-10,5.759415060674785e-19
4.510643819734546e-09,0.11224547458929762,0.0,0.0,0.0,0.0,0.99999817173484151,1.8145732668887781e-06,6.1664146773476658e-09,6.7178228234677039e-10,6.1986144519400522e-09,5.0353572617867673e-10,1.515446986601065e-10,9.5100742875974984e-19
5.096309458248895e-09,0.11224548791814423,0.0,0.0,0.0,0.0,0.99999793415396476,2.0500793842067542e-06,7.0120649846074694e-09,8.5753375759352246e-10,7.056956761706697e-09,6.4565408041291121e-10,1.9444131453769281e-10,1.471155473234079e-18
5.6819750967632434e-09,0.11224550124903505,0.0,0.0,0.0,0.0,0.9999976965268319,2.285562540460314e-06,7.8676002791633763e-09,1.065924628263207e-09,7.9280464928659376e-09,8.0612080926697962e-10,2.4293539044746281e-10,2.1633679467196174e-18
6.267640735277592e-09,0.11224551458199236,0.0,0.0,0.0,0.0,0.99999745885317759,2.5210227101709119e-06,8.7328894519193252e-09,1.2969530821384766e-09,8.8120121209377432e-09,9.8514773048091958e-10,2.9710985795777809e-10,3.055306339430553e-18
6.853306373791941e-09,0.11224552791703798,0.0,0.0,0.0,0.0,0.99999722113273892,2.7564598678616303e-06,9.6078050009475914e-09,1.5506173132143252e-09,9.7089785030792684e-09,1.1829438721444119e-09,3.570484686466427e-10,4.1752309337493298e-18
8.024637650820638e-09,0.1122455545934802,0.0,0.0,0.0,0.0,0.99999674555046714,3.2272650452833183e-06,1.1386022697410254e-08,2.1258459145075096e-09,1.1542395424400351e-08,1.635666410830055e-09,4.9455709729599931e-10,7.2147468837280586e-18
9.195968927849335e-09,0.11224558127853092,0.0,0.0,0.0,0.0,0.99999626977795142,3.697977868939159e-06,1.3201301809823543e-08,2.7915961116742719e-09,1.3429227430083949e-08,2.1659076928687383e-09,6.5614683841928694e-10,1.151788637012759e-17
9.999999999999999e-09,0.11224560797235479,0.0,0.0,0.0,0.0,0.99999594308463102,4.0210333588739603e-06,1.4468337469787922e-08,3.3009704122084899e-09,1.4755770215052466e-08,2.5755667631272147e-09,7.8136519971928332e-10,1.5328586940292125e-17
1.0367300204878032e-08,0.11224560797235479,0.0,0.0,0.0,0.0,0.99999579381315384,4.168598135063961e-06,1.5052742218218917e-08,3.5478536893923573e-09,1.5370353069777662e-08,2.7752471752743173e-09,8.425149221260858e-10,1.7327320677407282e-17
1.153863148190673e-08,0.1122456346751122,0.0,0.0,0.0,0.0,0.99999531765406457,4.6391256399117604e-06,1.6939492545214602e-08,4.394604539988463e-09,1.7366601963207008e-08,3.4652265754342018e-09,1.054369621336031e-09,2.4892266218108398e-17
1.2709962758935427e-08,0.11224566138695947,0.0,0.0,0.0,0.0,0.99999484129869931,5.1095601797538337e-06,1.8860747742701383e-08,5.331834665569916e-09,1.9418757211246856e-08,4.2373517267193571e-09,1.2924296941299677e-09,3.4468305967832132e-17
1.3881294035964124e-08,0.11224568810804915,0.0,0.0,0.0,0.0,0.99999436474509618,5.5799015508765119e-06,2.0815746524161171e-08,6.3595301801941763e-09,2.1527557961338449e-08,5.0930945531785003e-09,1.5574237908094503e-09,4.6316672650015948e-17
1.505262531299282e-08,0.11224571483853031,0.0,0.0,0.0,0.0,0.99999388799131739,6.050149549579451e-06,2.2803768621465561e-08,7.4776773122180918e-09,2.3693702148400607e-08,6.0338951767135548e-09,1.8500898178407608e-09,6.070377244289562e-17
1.6223956590021518e-08,0.11224574157854858,0.0,0.0,0.0,0.0,0.99999341103544614,6.5203039721745782e-06,2.4824132390631866e-08,8.686262406417891e-09,2.5917848887076352e-08,7.0611637539407071e-09,2.1711743804111598e-09,7.7901638865770238e-17
1.7395287867050215e-08,0.11224576832824622,0.0,0.0,0.0,0.0,0.99999293387558585,6.9903646149852422e-06,2.6876193242382353e-08,9.9852719252980406e-09,2.8200620039777068e-08,8.1762816814334319e-09,2.521432418275417e-09,9.818835464453114e-17
1.8566619144078912e-08,0.11224579508776254,0.0,0.0,0.0,0.0,0.99999245650985924,7.4603312743446129e-06,2.8959341765310723e-08,1.1374692450495633e-08,3.0542602091949248e-08,9.3806030398040888e-09,2.9016267730842549e-09,1.218472420990878e-16
1.973795042110761e-08,0.11224582185723395,0.0,0.0,0.0,0.0,0.99999197893640868,7.9302037465937817e-06,3.1073001372887104e-08,1.2854510684500284e-08,3.2944348503271149e-08,1.0675456403736348e-08,3.3125276454599638e-09,1.4916577830595901e-16
2.0909281698136307e-08,0.1122458486367942,0.0,0.0,0.0,0.0,0.99999150115339186,8.3999818280808059e-06,3.3216626119565032e-08,1.442471345237878e-08,3.5406381889936435e-08,1.2062146517916622e-08,3.7549120869776779e-09,1.8043614776775966e-16
2.2080612975165004e-08,0.11224587542657442,0.0,0.0,0.0,0.0,0.99999102315898325,8.8696653151612967e-06,3.5389699570865909e-08,1.6085287702800677e-08,3.7929195153686188e-08,1.3541955159473314e-08,4.2295637326195543e-09,2.1595672430905979e-16
2.32519442521937e-08,0.11224590222670326,0.0,0.0,0.0,0.0,0.99999054495137429,9.339254004197756e-06,3.7591733535633958e-08,1.7836220508914258e-08,4.0513252748559922e-08,1.5116142111967942e-08,4.7372725070789411e-09,2.5603111687499289e-16
2.4423275529222398e-08,0.11224592903730707,0.0,0.0,0.0,0.0,0.99999006652876954,9.8087476915574223e-06,3.9822266243965238e-08,1.9677499069375104e-08,4.3158992501645026e-08,1.6785946570793366e-08,5.2788342082318837e-09,3.0096596240436089e-16
2.5594606806251095e-08,0.11224595585851009,0.0,0.0,0.0,0.0,0.99998958788938863,1.0278146173610792e-05,4.208086034039363e-08,2.1609110709637738e-08,4.5866827618546079e-08,1.8552588686780814e-08,5.8550500439572012e-09,3.5107148838668013e-16
2.6765938083279793e-08,0.11224598269043445,0.0,0.0,0.0,0.0,0.99998910903146354,1.0747449246732492e-05,4.4367101591575717e-08,2.3631042883093742e-08,4.8637147974884581e-08,2.0417270551318893e-08,6.4667263247820058e-09,4.0666443746050467e-16
2.793726936030849e-08,0.11224600953320023,0.0,0.0,0.0,0.0,0.99998862995323912,1.1216656707302933e-05,4.668059838735989e-08,2.5743283171613946e-08,5.1470320614912071e-08,2.2381176571179221e-08,7.1146743396639861e-09,4.6806783379860431e-16
2.9108600637337187e-08,0.11224603638692557,0.0,0.0,0.0,0.0,0.99998815065297275,1.1685768351707236e-05,4.9020980872636344e-08,2.7945819285790944e-08,5.4366690619073253e-08,2.444547413934598e-08,7.7997101588387886e-09,5.3560674163133924e-16
3.0279931914365884e-08,0.11224606325172716,0.0,0.0,0.0,0.0,0.9999876711289325,1.2154783976331703e-05,5.1387898921376007e-08,3.023863906568594e-08,5.7326583128668577e-08,2.6611315203632812e-08,8.5226541767508897e-09,6.0960733550915355e-16
