Time (s),Volume (m^3),Ar,He,Ne,N2,ethane(1),CH3(4),C2H5(5),C(3),H(6),C2H4(8),H2(12)
4.120637048848935e-19,0.11224537199999998,0.0,0.0,0.0,0.0,0.99999999999999989,1.6582951922125378e-16,5.3411367895963697e-19,1.1215040104476857e-29,5.3411367895976909e-19,8.1061836704692976e-30,2.4326142798641137e-30
1.1537783736777017e-18,0.11224537200000002,0.0,0.0,0.0,0.0,0.99999999999999956,4.6432265381947413e-16,1.4955183011049376e-18,6.7738842231036292e-29,1.4955183011057351e-18,4.8961349370125047e-29,1.469299025052994e-29
2.6372077112633182e-18,0.11224537200000007,0.0,0.0,0.0,0.0,0.999999999999999,1.0613089230157692e-15,3.4183275454673547e-18,3.2613336623812794e-28,3.4183275454711958e-18,2.3572782114460449e-28,7.0740423260708821e-29
5.604066386434551e-18,0.11224537200000013,0.0,0.0,0.0,0.0,0.99999999999999778,2.2552814614077755e-15,7.2639460344794533e-18,1.4243100932679496e-27,7.2639460344962289e-18,1.0294853262256263e-27,3.0894201356609986e-28
1.1537783736777018e-17,0.11224537200000026,0.0,0.0,0.0,0.0,0.99999999999999545,4.6432265381894571e-15,1.4955183013652704e-17,5.9462142633881303e-27,1.4955183013722743e-17,4.297898582767052e-27,1.2897720913941705e-27
2.340521843746195e-17,0.11224537200000054,0.0,0.0,0.0,0.0,0.99999999999999056,9.4191166917434872e-15,3.033765697659543e-17,2.4292225467854479e-26,3.0337656976881571e-17,1.7558318083376466e-26,5.2691398365367048e-27
4.7140087838831816e-17,0.11224537200000106,0.0,0.0,0.0,0.0,0.99999999999998113,1.8970896998814228e-14,6.1102604920865809e-17,9.819305933356186e-26,6.1102604922022402e-17,7.0973529050773873e-26,2.1298705689705275e-26
9.460982664157155e-17,0.11224537200000217,0.0,0.0,0.0,0.0,0.99999999999996148,3.8074457612806394e-14,1.2263250088294605e-16,3.9482997289104125e-25,1.2263250088759668e-16,2.8538143897886127e-25,8.5641158887079746e-26
1.8954930424705102e-16,0.11224537200000431,0.0,0.0,0.0,0.0,0.99999999999992317,7.6281578840193597e-14,2.4569229310126513e-16,1.5834447833019868e-24,2.4569229311991612e-16,1.1445072118368341e-24,3.4345935156200531e-25
3.794282594580099e-16,0.11224537200000863,0.0,0.0,0.0,0.0,0.99999999999984635,1.5269582129257928e-13,4.9181187871453681e-16,6.3420383372416489e-24,4.918118787892379e-16,4.5839985777889917e-24,1.3756288845607794e-24
7.591861698799278e-16,0.11224537200001723,0.0,0.0,0.0,0.0,0.9999999999996928,3.0552430618779581e-13,9.8405105464761474e-16,2.5384681177062651e-23,9.8405105494661373e-16,1.834794065647032e-23,5.5061005613797563e-24
1.5187019907237634e-15,0.11224537200003455,0.0,0.0,0.0,0.0,0.99999999999938471,6.1118127594000924e-13,1.9685294253399069e-15,1.0157178978023588e-22,1.9685294265362934e-15,7.341566272759821e-23,2.2031574520109278e-23
3.037733632411435e-15,0.11224537200006908,0.0,0.0,0.0,0.0,0.99999999999876954,1.2224952152915588e-12,3.9374862420290369e-15,4.0635329864682458e-22,3.9374862468153724e-15,2.9371046273817278e-22,8.8140646152381628e-23
6.075796915786778e-15,0.11224537200013808,0.0,0.0,0.0,0.0,0.99999999999753941,2.4451230933831498e-12,7.8754001766254567e-15,1.6255454827499089e-21,7.8754001957724267e-15,1.1749375199386565e-21,3.5259129463175691e-22
1.2151923482537464e-14,0.11224537200027623,0.0,0.0,0.0,0.0,0.99999999999507816,4.8903788471202912e-12,1.5751229250690733e-14,6.5024465142671995e-21,1.5751229327282292e-14,4.6999417327053928e-21,1.4104226952944569e-21
2.4304176616038836e-14,0.11224537200055248,0.0,0.0,0.0,0.0,0.99999999999015599,9.7808903448104136e-12,3.1502892218309526e-14,2.6010315213198234e-20,3.150289252468658e-14,1.8800152708888715e-20,5.6418065741928829e-21
4.8608682883041574e-14,0.11224537200110497,0.0,0.0,0.0,0.0,0.99999999998031186,1.9561913301054039e-11,6.3006237431487986e-14,1.0404231901586195e-19,6.3006238657045312e-14,7.5201402121338085e-20,2.2567463944342869e-20
9.721769541704706e-14,0.11224537200220991,0.0,0.0,0.0,0.0,0.99999999996062372,3.9123959056994781e-11,1.2601300496951147e-13,4.1617139113012277e-19,1.2601300987205894e-13,3.0080734884626115e-19,9.0270379550595007e-20
1.9443572048505802e-13,0.1122453720044198,0.0,0.0,0.0,0.0,0.99999999992124788,7.8248049942690122e-11,2.5202684849144974e-13,1.6646897845121942e-18,2.520268681040348e-13,1.2032341383709758e-18,3.6108295356004559e-19
3.8887177062107997e-13,0.11224537200883956,0.0,0.0,0.0,0.0,0.99999999984249566,1.5649622920933567e-10,5.0405576931268957e-13,6.6587674968330902e-18,5.0405584778189277e-13,4.8129561374736394e-18,1.444337787444968e-18
7.777438708931239e-13,0.11224537201767913,0.0,0.0,0.0,0.0,0.99999999968499131,3.129925777236404e-10,1.0081185460150131e-12,2.6635086055242852e-17,1.0081188600421278e-12,1.9251944501211461e-17,5.7773879163149291e-18
1e-12,0.11224537203535827,0.0,0.0,0.0,0.0,0.99999999959497077,4.0243655728957748e-10,1.29621644545661e-12,4.9469636736586013e-17,1.2962170290457761e-12,3.5757094824650605e-17,1.0730481873164735e-17
1.5554880714372115e-12,0.11224537203535827,0.0,0.0,0.0,0.0,0.9999999993699823,6.2598523467626156e-10,2.0162638392621705e-12,1.0654037115947007e-16,2.0162650965718092e-12,7.7008664162005558e-17,2.3109823762905819e-17
2.333232271981299e-12,0.11224537205303746,0.0,0.0,0.0,0.0,0.99999999905497283,9.389778515281851e-10,3.0244288718755777e-12,2.2639829988226586e-16,3.0244315454222374e-12,1.6364469221341544e-16,4.9108768942481412e-17
3.888720673069475e-12,0.11224537208839581,0.0,0.0,0.0,0.0,0.99999999842495402,1.5649629249274921e-09,5.0408378917104137e-12,6.2592469544626104e-16,5.0408452958524045e-12,4.524385053935907e-16,1.3577408667530821e-16
5.288660234048832e-12,0.1122453721202183,0.0,0.0,0.0,0.0,0.99999999785793714,2.1283493614012341e-09,6.8556697830426196e-12,1.1145863848396643e-15,6.8556829824639264e-12,8.0566960429702732e-16,2.4177670122418715e-16
6.68859979502819e-12,0.11224537215204083,0.0,0.0,0.0,0.0,0.99999999729091948,2.6917356607483389e-09,8.6705691746591279e-12,1.7398849786189756e-15,8.6705898025102706e-12,1.2576784190200041e-15,3.7742200413922595e-16
8.088539356007548e-12,0.11224537218386332,0.0,0.0,0.0,0.0,0.99999999672390227,3.2551218305467353e-09,1.0485532325129419e-11,2.494251586184888e-15,1.0485561928584143e-11,1.8029964792500565e-15,5.4106895879589743e-16
1e-11,0.1122453722475084,0.0,0.0,0.0,0.0,0.9999999959497029,4.0243623736067163e-09,1.29637394503515e-11,3.6826901153961863e-15,1.2963783215175783e-11,2.6621125534588925e-15,7.9888508361861694e-16
1.0888418477966263e-11,0.1122453722475084,0.0,0.0,0.0,0.0,0.99999999558986674,4.3818938744788692e-09,1.4115604019691541e-11,4.297321970068783e-15,1.4115655115619858e-11,3.1064319319608273e-15,9.3222298276736887e-16
1.3688297599924978e-11,0.11224537231115356,0.0,0.0,0.0,0.0,0.9999999944558301,5.5086654394457246e-09,1.7745911373549141e-11,6.5774800700030668e-15,1.7745989718780721e-11,4.7548035142097018e-15,1.4268908634143734e-15
1.6488176721883693e-11,0.1122453723747987,0.0,0.0,0.0,0.0,0.99999999332179246,6.6354364930444348e-09,2.1376470355554079e-11,9.3670854884623978e-15,2.1376582128478303e-11,6.7715297780068805e-15,2.0321005716652478e-15
2.2087934965801124e-11,0.11224537250208916,0.0,0.0,0.0,0.0,0.99999999105371395,8.8889770373790415e-09,2.8638357282771591e-11,1.6503344104118163e-14,2.8638554993891927e-11,1.193094606896372e-14,3.5804184567355415e-15
2.7687693209718554e-11,0.11224537262937977,0.0,0.0,0.0,0.0,0.99999998878563179,1.1142515504362273e-08,3.5901266202038439e-11,2.5709193419309622e-14,3.5901575406228319e-11,1.8587104009541768e-14,5.5779052049458376e-15
3.8887209697553416e-11,0.1122453728839615,0.0,0.0,0.0,0.0,0.99999998424945524,1.5649586202024907e-08,5.0430151292687543e-11,5.0333785110890422e-14,5.043076171359358e-11,3.6393719293735251e-14,1.0921616285270817e-14
6.128624267322314e-11,0.11224537339312697,0.0,0.0,0.0,0.0,0.99999997517705419,2.4663702650477284e-08,7.9500186036288311e-11,1.2443540441146648e-13,7.9501721549427491e-11,8.99917985503988e-14,2.7006339775071796e-14
9.999999999999999e-11,0.11224537441146604,0.0,0.0,0.0,0.0,0.9999999594964607,4.0243328798840297e-08,1.2978241213397693e-10,3.3064270646696441e-13,1.2978662264242145e-10,2.3921535317881572e-13,7.1788745723049378e-14
1.0608430862456258e-10,0.11224537441146604,0.0,0.0,0.0,0.0,0.99999995703205879,4.2691835750039165e-08,1.3768927613606502e-10,3.7205182495844761e-13,1.3769403102268297e-10,2.6918659754368459e-13,8.0783241755472148e-14
1.5088237457590203e-10,0.11224537542981584,0.0,0.0,0.0,0.0,0.99999993888680683,6.0719835778501299e-08,1.9594367576016296e-10,7.5221879020975211e-13,1.9595357762041454e-10,5.4445312531169811e-13,1.6339280008101485e-13
1.9568044052724147e-10,0.11224537644817639,0.0,0.0,0.0,0.0,0.99999992074129784,7.8747702724503175e-08,2.5426331342707713e-10,1.2649360048423557e-12,2.5428043224122925e-10,9.1589424152514676e-13,2.7486683202792041e-13
2.4047850647858094e-10,0.1122453774665478,0.0,0.0,0.0,0.0,0.99999990259553162,9.6775436576650671e-08,3.1264811521281809e-10,1.9102028147225144e-12,3.1267466785723814e-10,1.3836159144371342e-12,4.1523818486584492e-13
3.3007463838125983e-10,0.112245379503323,0.0,0.0,0.0,0.0,0.99999986630322724,1.328305049576563e-07,4.2961293760074851e-10,3.5983822742765122e-12,4.2966555156208112e-10,2.6082928367434666e-12,7.827947189389275e-13
4.196707702839387e-10,0.11224538154014152,0.0,0.0,0.0,0.0,0.99999983000989234,1.6888504083124656e-07,5.4683755207425257e-10,5.8167508152655599e-12,5.469268108340718e-10,4.2193309891231106e-12,1.2663262015806454e-12
5.092669021866176e-10,0.11224538357700344,0.0,0.0,0.0,0.0,0.99999979371552661,2.0493904410252022e-07,6.6432133890344772e-10,8.5653016179307759e-12,6.6445905605213716e-10,6.2176202610224014e-12,1.8661108777122328e-12
5.988630340892965e-10,0.11224538561390886,0.0,0.0,0.0,0.0,0.99999975742012837,2.4099251467750407e-07,7.8206368661403882e-10,1.1844027795956064e-11,7.8226288928446664e-10,8.6040405610462968e-12,2.5824253278542554e-12
7.780552978946543e-10,0.11224538968785053,0.0,0.0,0.0,0.0,0.99999968482623103,3.1309785737812755e-07,1.0183217399919974e-09,1.9991979791463512e-11,1.0186876082529946e-09,1.4544633693295129e-11,4.3657096670649091e-12
9.393283353194762e-10,0.11224539335454768,0.0,0.0,0.0,0.0,0.99999961948818306,3.7799084307529948e-07,1.2318323906352097e-09,2.9138269631443964e-11,1.2324044705516268e-09,2.1227070051569411e-11,6.3718952776388718e-12
9.999999999999999e-10,0.11224539702138718,0.0,0.0,0.0,0.0,0.99999959490683654,4.0240343814886147e-07,1.3123707807407922e-09,3.3023795606025254e-11,1.3130356702937157e-09,2.4069711929979176e-11,7.2253693505045814e-12
1.1006013727442982e-09,0.11224539702138718,0.0,0.0,0.0,0.0,0.99999955414677433,4.4288210142079443e-07,1.4461716909140291e-09,4.0002224309498863e-11,1.4470102238897241e-09,2.9180210287787975e-11,8.759831645191013e-12
1.2618744101691203e-09,0.1122454006883695,0.0,0.0,0.0,0.0,0.99999948880199985,5.0777163188265686e-07,1.6613362711470767e-09,5.2583805129399049e-11,1.6625081846845058e-09,3.8408964114353677e-11,1.1531104780939375e-11
1.5844204850187644e-09,0.11224540802276471,0.0,0.0,0.0,0.0,0.99999935810232865,6.375455070269591e-07,2.0941279613958972e-09,8.2899690514369631e-11,2.0961938251406074e-09,6.0712824707917678e-11,1.8230047578377728e-11
1.874711952383444e-09,0.11224541462421408,0.0,0.0,0.0,0.0,0.9999992404610536,7.5433607995617942e-07,2.4864296691106353e-09,1.160578809385877e-10,2.4895949860337049e-09,8.519775020213949e-11,2.558615127131023e-11
2.1650034197481233e-09,0.11224542122613418,0.0,0.0,0.0,0.0,0.99999912280878145,8.7112104626577196e-07,2.8813540475380034e-09,1.547805791931678e-10,2.8859373036307902e-09,1.1389113592279632e-10,3.4209218279818766e-11
2.4552948871128028e-09,0.11224542782852805,0.0,0.0,0.0,0.0,0.99999900514547846,9.8790040285173724e-07,3.2788823427967182e-09,1.9906756048142114e-10,3.2852392187166938e-09,1.4682093095229227e-10,4.4108712751593795e-11
2.7455863544774822e-09,0.11224543443139846,0.0,0.0,0.0,0.0,0.99999888747111065,1.1046741466101962e-06,3.6789960630015821e-09,2.489186003459647e-10,3.6875189094331224e-09,1.8401488200629785e-10,5.5294158617544966e-11
3.0358778218421617e-09,0.11224544103474841,0.0,0.0,0.0,0.0,0.99999876978564528,1.2214422744374223e-06,4.081676973523738e-09,3.0433347467432823e-10,4.0927942960220905e-09,2.2550053693499585e-10,6.7775138348655331e-11
3.616460756571521e-09,0.11224545424289836,0.0,0.0,0.0,0.0,0.9999985343812865,1.454961669883899e-06,4.8946685988763392e-09,4.3185383189815696e-10,4.9124026628887111e-09,3.2145624398809147e-10,9.6662296032826869e-11
4.19704369130088e-09,0.11224546745300072,0.0,0.0,0.0,0.0,0.99999829893213743,1.6884585643639803e-06,5.7177162509152497e-09,5.8162684610888979e-10,5.7442027594079769e-09,4.3490464038485013e-10,1.308479630840403e-10
4.777626626030239e-09,0.11224548066507789,0.0,0.0,0.0,0.0,0.99999806343793418,1.9219329330525077e-06,6.550683003960392e-09,7.5365073714146198e-10,6.5883289725191491e-09,5.6605918999344668e-10,1.704108371433361e-10
5.358209560759598e-09,0.11224549387915195,0.0,0.0,0.0,0.0,0.9999978278984164,2.155384751126058e-06,7.3934356651814827e-09,9.4792373059944749e-10,7.4449119457096068e-09,7.1513047119640097e-10,2.154304656326145e-10
5.938792495488957e-09,0.1122455070952447,0.0,0.0,0.0,0.0,0.99999759231332541,2.3888139937627618e-06,8.2458445072423252e-09,1.1644440577563506e-09,8.3140788466551831e-09,8.8232638300288751e-10,2.659871844182827e-10
6.519375430218316e-09,0.11224552031337769,0.0,0.0,0.0,0.0,0.99999735668240286,2.6222206361423112e-06,9.1077832324051313e-09,1.403209955697578e-09,9.195953402939752e-09,1.0678521722121733e-09,3.2216210909607485e-10
7.099958364947675e-09,0.11224553353357207,0.0,0.0,0.0,0.0,0.99999712100539484,2.8556046534460332e-06,9.9791290615330486e-09,1.664219667607492e-09,1.0090655812583638e-08,1.2719103642187737e-09,3.8403715488973284e-10
7.680541299677034e-09,0.11224554675584872,0.0,0.0,0.0,0.0,0.99999688528204644,3.0889660208568056e-06,1.0859762706678381e-08,1.9474714429462601e-09,1.0998302771186551e-08,1.4947007839373117e-09,4.5169503021009725e-10
8.261124234406394e-09,0.11224555998022828,0.0,0.0,0.0,0.0,0.99999664951210721,3.3223047135588863e-06,1.1749568161580672e-08,2.2529635374263199e-09,1.1919007681548719e-08,1.7364207174114259e-09,5.2521918871424078e-10
8.841707169135754e-09,0.11224557320673108,0.0,0.0,0.0,0.0,0.99999641369532677,3.5556207067377202e-06,1.2648432439144505e-08,2.5806942129383073e-09,1.2852880916431893e-08,1.9972651141864529e-09,6.0469376907360533e-10
9.422290103865114e-09,0.11224558643537724,0.0,0.0,0.0,0.0,0.99999617783145722,3.7889139755799455e-06,1.3556245540454123e-08,2.9306617376347078e-09,1.3800029849448442e-08,2.2774266108554678e-09,6.9020358754095346e-10
9.999999999999999e-09,0.11224559966618652,0.0,0.0,0.0,0.0,0.99999594308778461,4.0210302025368768e-06,1.4468342881555996e-08,3.3009677853715095e-09,1.4755772399276485e-08,2.5755641707524489e-09,7.8136551920644806e-10
1.0002873038594473e-08,0.11224559966618652,0.0,0.0,0.0,0.0,0.99999594192025132,4.0221844952735133e-06,1.4472900584899148e-08,3.3028643861760857e-09,1.4760558724510704e-08,2.5770954302016334e-09,7.8183416730781232e-10
1.0583455973323833e-08,0.11224561289917849,0.0,0.0,0.0,0.0,0.99999570596146492,4.2554322410076118e-06,1.5398293761215335e-08,3.6973004398910007e-09,1.5734568704555818e-08,2.8964594186998123e-09,8.7967172708407168e-10
1.1164038908053193e-08,0.11224562613437247,0.0,0.0,0.0,0.0,0.99999546995485422,4.4886571879724012e-06,1.6332324008616338e-08,4.1139681866976986e-09,1.6722158190661756e-08,3.2357042925056184e-09,9.8380310813405906e-10
1.1744621842782553e-08,0.11224563937178753,0.0,0.0,0.0,0.0,0.99999523390017742,4.7218593113588615e-06,1.7274892788262343e-08,4.5528659210040817e-09,1.7723423050844041e-08,3.5950138136678187e-09,1.094315721874927e-09
1.2325204777511912e-08,0.11224565261144255,0.0,0.0,0.0,0.0,0.9999949977971937,4.9550385863589497e-06,1.8225904225550729e-08,5.0139919438730717e-09,1.8738456477473166e-08,3.9745696799229842e-09,1.2112975820252303e-09
1.2905787712241272e-08,0.11224566585335602,0.0,0.0,0.0,0.0,0.99999476164566437,5.1881949881657556e-06,1.9185265323761269e-08,5.4973445633356166e-09,1.9767348773054611e-08,4.3745513593780216e-09,1.3348373530635431e-09
1.3486370646970632e-08,0.11224567909754635,0.0,0.0,0.0,0.0,0.99999452544535206,5.4213284919733215e-06,2.0152885767798797e-08,6.0029220944525951e-09,2.0810187546447906e-08,4.79513624179825e-09,1.4650243052473938e-09
1.4066953581699992e-08,0.11224569234403188,0.0,0.0,0.0,0.0,0.99999428919602029,5.6544390729762587e-06,2.112867744836303e-08,6.5307228590745883e-09,2.1867058189262784e-08,5.2365000058534405e-09,1.6019482058662666e-09
1.4647536516429352e-08,0.11224570559283052,0.0,0.0,0.0,0.0,0.99999405289743415,5.8875267063697155e-06,2.2112554349354588e-08,7.0807451857522777e-09,2.2938043988672732e-08,5.6988167058349723e-09,1.745699293299762e-09
1.522811945115871e-08,0.11224571884395998,0.0,0.0,0.0,0.0,0.9999938165493597,6.1205913673497298e-06,2.3104432950063453e-08,7.652987410077553e-09,2.4023225724556468e-08,6.182258460756172e-09,1.8963683684708877e-09
1.5808702385888068e-08,0.11224573209743767,0.0,0.0,0.0,0.0,0.99999358015156503,6.3536330311133852e-06,2.4104232440042106e-08,8.2474478750494119e-09,2.5122681453941083e-08,6.6869952880841513e-09,2.0540468436099572e-09
1.6389285320617426e-08,0.11224574535328118,0.0,0.0,0.0,0.0,0.99999334370381876,6.5866516728583756e-06,2.5111874226770827e-08,8.8641249309333464e-09,2.6236487003715918e-08,7.2131954837006237e-09,2.2188266297613972e-09
1.6969868255346784e-08,0.11224575861150769,0.0,0.0,0.0,0.0,0.99999310720589107,6.8196472677825648e-06,2.6127281332581504e-08,9.5030169348429364e-09,2.7364716574624679e-08,7.7610260874840088e-09,2.3907999990409528e-09
1.7550451190076142e-08,0.11224577187213426,0.0,0.0,0.0,0.0,0.99999287065755316,7.0526197910841887e-06,2.7150378593730907e-08,1.0164122250788829e-08,2.850744254209795e-08,8.3306527293965915e-09,2.5700596298186571e-09
1.81310341248055e-08,0.11224578513517751,0.0,0.0,0.0,0.0,0.99999263405857697,7.2855692179624732e-06,2.8181093380957534e-08,1.0847439250282151e-08,2.9664734734472075e-08,8.9222390727053879e-09,2.7566987708070403e-09
1.8711617059534858e-08,0.11224579840065409,0.0,0.0,0.0,0.0,0.99999239740873602,7.5184955236176023e-06,2.9219355606414967e-08,1.1552966312644152e-08,3.0836660425495994e-08,9.5359468082508054e-09,2.9508112423882154e-09
1.9292199994264216e-08,0.11224581166858065,0.0,0.0,0.0,0.0,0.99999216070780539,7.7513986832497921e-06,3.0265096588758868e-08,1.2280701824364579e-08,3.202328547066728e-08,1.0171936530726451e-08,3.1524911775899526e-09
1.9872782928993574e-08,0.11224582493897348,0.0,0.0,0.0,0.0,0.99999192395555958,7.984278672059297e-06,3.1318249031122392e-08,1.3030644178944801e-08,3.3224674329587246e-08,1.0830367755611134e-08,3.3618330169062965e-09
2.0453365863722933e-08,0.11224583821184873,0.0,0.0,0.0,0.0,0.99999168715177611,8.2171354652469396e-06,3.2378747556971845e-08,1.3802791777228581e-08,3.4440889529418884e-08,1.1511398505155748e-08,3.5789316303179304e-09
2.103394879845229e-08,0.11224585148722228,0.0,0.0,0.0,0.0,0.99999145029623104,8.4499690380143819e-06,3.3446529119814935e-08,1.4597143027880942e-08,3.5671991254223596e-08,1.2215184991631209e-08,3.803882410486403e-09
2.161453173318165e-08,0.11224586476511007,0.0,0.0,0.0,0.0,0.99999121338870434,8.6827793655638348e-06,3.4521532549098762e-08,1.5413696347329044e-08,3.6918037799265989e-08,1.2941881967689205e-08,4.036781168941056e-09
2.2195114667911007e-08,0.11224587804552794,0.0,0.0,0.0,0.0,0.9999909764289755,8.9155664230973297e-06,3.5603697767418995e-08,1.6252450159240388e-08,3.8179086354948821e-08,1.3691643330777764e-08,4.2777239573926521e-09
2.2775697602640365e-08,0.1122458913284914,0.0,0.0,0.0,0.0,0.99999073941682359,9.1483301858168725e-06,3.6692965869541328e-08,1.7113402894402562e-08,3.9455192928041358e-08,1.4464622062117852e-08,4.5268070856665584e-09
2.3356280537369723e-08,0.11224590461401576,0.0,0.0,0.0,0.0,0.99999050235202991,9.3810706289252044e-06,3.7789280011887226e-08,1.7996552991339269e-08,4.0746411450895796e-08,1.5260969539566026e-08,4.7841273243920939e-09
