Time (s),Volume (m^3),Ar,He,Ne,N2,ethane(1),CH3(4),C2H5(5),C(3),H(6),C2H4(8),H2(12),C3H7(14)
4.3038609003665977e-19,0.11224537200000001,0.0,0.0,0.0,0.0,0.99999999999999978,1.7320328396910815e-16,5.5786302631086043e-19,1.2234577462841664e-29,5.5786302631100449e-19,8.8431010898195738e-30,2.6537560254142182e-30,1.0536991954598256e-57
1.2050810521026474e-18,0.11224537200000002,0.0,0.0,0.0,0.0,0.99999999999999956,4.8496919511346306e-16,1.5620164736899957e-18,7.3896847875559179e-29,1.562016473690866e-18,5.3412330583069107e-29,1.6028686393673584e-29,3.3129988615529585e-56
2.754470976234623e-18,0.11224537200000007,0.0,0.0,0.0,0.0,0.999999999999999,1.108501017402014e-15,3.5703233685266114e-18,3.5578151261936835e-28,3.5703233685308022e-18,2.5715737970033639e-28,7.7171225221621041e-29,7.3911182081149624e-55
5.853250824498573e-18,0.11224537200000013,0.0,0.0,0.0,0.0,0.99999999999999767,2.3555646619784796e-15,7.5869371585132216e-18,1.5537913377801958e-27,7.5869371585315225e-18,1.1230738384937113e-27,3.3702701525421974e-28,1.3842746397120566e-53
1.2050810521026474e-17,0.11224537200000027,0.0,0.0,0.0,0.0,0.99999999999999512,4.849691951128866e-15,1.5620164739739953e-17,6.4867729707923867e-27,1.5620164739816358e-17,4.6886121986019636e-27,1.407021444914144e-27,2.3909901898588641e-52
2.4445929914082276e-17,0.11224537200000055,0.0,0.0,0.0,0.0,0.99999999999999012,9.8379465294194594e-15,3.168661990720747e-17,2.650058416756049e-26,3.1686619907519625e-17,1.9154510691193603e-26,5.7481417033161942e-27,3.9726659426125592e-51
4.923616870019388e-17,0.11224537200000109,0.0,0.0,0.0,0.0,0.99999999999998024,1.9814455685959931e-14,6.3819530262198746e-17,1.0711959828392439e-25,6.3819530263460516e-17,7.7425594784190504e-26,2.3234907822075452e-26,6.4764480764870816e-50
9.881664627241709e-17,0.11224537200000229,0.0,0.0,0.0,0.0,0.99999999999995981,3.9767473998877991e-14,1.2808535105240615e-16,4.3072319340678421e-25,1.280853510574797e-16,3.1132491154794284e-25,9.3426542512425288e-26,1.0459480752154056e-48
1.979776014168635e-16,0.1122453720000045,0.0,0.0,0.0,0.0,0.99999999999991995,7.9673510624062689e-14,2.5661699295372071e-16,1.7273926512036089e-24,2.566169929740679e-16,1.2485521405585171e-24,3.7468222206453687e-25,1.6813309214663725e-47
3.9629951170575634e-16,0.11224537200000902,0.0,0.0,0.0,0.0,0.99999999999983957,1.5948558387182621e-13,5.1368027803994812e-16,6.918580636926271e-24,5.1368027812144307e-16,5.0007209898882159e-24,1.5006832247350966e-24,2.6963969489518252e-46
7.92943332283542e-16,0.11224537200001805,0.0,0.0,0.0,0.0,0.99999999999967859,3.1910973035692962e-13,1.027806853346797e-15,2.7692352888284399e-23,1.0278068536729888e-15,2.0015916328792009e-23,6.006643827387077e-24,4.3192552023564854e-45
1.5862309734391132e-15,0.11224537200003604,0.0,0.0,0.0,0.0,0.99999999999935762,6.383580232854431e-13,2.0560600244980708e-15,1.1080548250582619e-22,2.0560600258032652e-15,8.0089738167658772e-23,2.4034399606298655e-23,6.914825509030645e-44
3.172806255750256e-15,0.11224537200007213,0.0,0.0,0.0,0.0,0.99999999999871481,1.276854608975694e-12,4.1125664489509171e-15,4.4329408216160478e-22,4.1125664541725554e-15,3.2041111129028131e-22,9.6153250933465453e-23,1.1066930768546908e-42
6.345956820372541e-15,0.11224537200014427,0.0,0.0,0.0,0.0,0.99999999999742961,2.5538477796890962e-12,8.2255796264577786e-15,1.7733206428470896e-21,8.2255796473461117e-15,1.281748813720298e-21,3.8464432446448042e-22,1.7709642102008693e-41
1.2692257949617112e-14,0.11224537200028852,0.0,0.0,0.0,0.0,0.99999999999485922,5.1078341184474961e-12,1.6451607295875955e-14,7.0935712072429451e-21,1.6451607379433348e-14,5.1272043505610924e-21,1.5386400494277054e-21,2.8337420190116051e-40
2.5384860208106253e-14,0.11224537200057702,0.0,0.0,0.0,0.0,0.99999999998971845,1.0215806785290683e-11,3.2903667892328425e-14,2.8374862088367599e-20,3.2903668226570021e-14,2.0509238410098317e-20,6.1546865661149319e-21,4.5341307787840881e-39
5.077006472508454e-14,0.11224537200115406,0.0,0.0,0.0,0.0,0.99999999997943678,2.0431752076282597e-11,6.580781011568398e-14,1.1350060270181587e-19,6.5807811452705737e-14,8.2037818136043106e-20,2.4619005907784239e-20,7.2546732577920179e-38
1.015404737590411e-13,0.11224537200230818,0.0,0.0,0.0,0.0,0.99999999995887301,4.0863642487488564e-11,1.3161617868408712e-13,4.5400471806844585e-19,1.316161840325354e-13,3.2815318132278996e-19,9.8476598154377411e-20,1.1607365773470137e-36
2.0308129182695423e-13,0.11224537200461632,0.0,0.0,0.0,0.0,0.99999999991774613,8.172742262678901e-11,2.6323325230677851e-13,1.816023475240144e-18,2.6323327370329842e-13,1.3126179810914177e-18,3.9390798354216039e-19,1.8571175588727319e-35
4.061629279627805e-13,0.11224537200923264,0.0,0.0,0.0,0.0,0.99999999983549204,1.6345498017294317e-10,5.2646874548863576e-13,7.264103014373366e-18,5.2646883109620298e-13,5.2504939418019983e-18,1.5756386510443693e-18,2.9711727976660374e-34
8.123262002344331e-13,0.11224537201846525,0.0,0.0,0.0,0.0,0.99999999967098396,3.2691008433545827e-10,1.0529451155417215e-12,2.9056429544088298e-17,1.0529454581432364e-12,2.100211184781317e-17,6.3025963183915078e-18,4.7531714965688558e-33
1e-12,0.11224537203693055,0.0,0.0,0.0,0.0,0.99999999959497055,4.0243694381511831e-10,1.2962163523203866e-12,4.9195371432180744e-17,1.2962169326943094e-12,3.5558853533848921e-17,1.0670980856373193e-17,2.1219985568038225e-32
1.6246527447777381e-12,0.11224537203693055,0.0,0.0,0.0,0.0,0.99999999934196782,6.5382024894126579e-10,2.1059193899531875e-12,1.1622574722763517e-16,2.1059207617278677e-12,8.4009455903840521e-17,2.5210694949947181e-17,7.6028065431315446e-32
2.436979289321043e-12,0.1122453720553958,0.0,0.0,0.0,0.0,0.99999999901295122,9.8073036980089285e-10,3.1589151981311422e-12,2.4697972455737894e-16,3.1589181151618799e-12,1.7852155249311424e-16,5.3573174845664081e-17,2.8981699950762914e-31
4.061632378407653e-12,0.11224537209232636,0.0,0.0,0.0,0.0,0.99999999835491837,1.6345504366425885e-09,5.2649929462823448e-12,6.8282627637724215e-16,5.2650010253387875e-12,4.9356990994587336e-16,1.4811724353589443e-16,2.3820567830342401e-30
5.5238201585856015e-12,0.11224537212556392,0.0,0.0,0.0,0.0,0.99999999776268811,2.2229883554340483e-09,7.160532490170506e-12,1.2159112331794945e-15,7.1605468934830027e-12,8.7891393633154603e-16,2.6375666349318947e-16,6.9458743011245587e-30
6.98600793876355e-12,0.11224537215880147,0.0,0.0,0.0,0.0,0.99999999717045795,2.8114261246328816e-09,9.0561456700503672e-12,1.8980544815549239e-15,9.0561681804502683e-12,1.3720161954206321e-15,4.1173375469372397e-16,1.5889308979260506e-29
8.4481957189415e-12,0.11224537219203898,0.0,0.0,0.0,0.0,0.99999999657822702,3.3998637525058964e-09,1.0951828404289452e-11,2.7209990570346182e-15,1.0951860710965786e-11,1.966911199424541e-15,5.9025833274110129e-16,3.1415243011243502e-29
1e-11,0.11224537225851411,0.0,0.0,0.0,0.0,0.99999999594969891,4.0243662073164591e-09,1.2963754081735142e-11,3.7114538040424665e-15,1.2963798194995968e-11,2.6829086892685109e-15,8.051251568356608e-16,5.7146049953431582e-29
1.1372571279297398e-11,0.11224537225851411,0.0,0.0,0.0,0.0,0.9999999953937655,4.5767386857086993e-09,1.4743352481954886e-11,4.6879829729632293e-15,1.4743408248121005e-11,3.3888483022796382e-15,1.0169737327409155e-15,8.7846145333907803e-29
1.4296946839653296e-11,0.11224537232498931,0.0,0.0,0.0,0.0,0.99999999420930274,5.7536130964039263e-09,1.8535133638776547e-11,7.1754256790054475e-15,1.8535219151483738e-11,5.1870837900780207e-15,1.5566145969802334e-15,1.9664148043960558e-28
1.7221322400009193e-11,0.11224537239146451,0.0,0.0,0.0,0.0,0.99999999302483866,6.9304869492428778e-09,2.2327189294309177e-11,1.0218628514962524e-14,2.2327311302465199e-11,7.3871665565244724e-15,2.2168482210356865e-15,3.8840179590302689e-28
2.307007352072099e-11,0.11224537252441509,0.0,0.0,0.0,0.0,0.99999999065590761,9.28423294997843e-09,2.9912139455023929e-11,1.8003629933788003e-14,2.9912355308396222e-11,1.3015680890748838e-14,3.9059392377129611e-15,1.238167118397511e-27
2.8918824641432784e-11,0.11224537265736577,0.0,0.0,0.0,0.0,0.99999998828697256,1.1637976684510326e-08,3.7498204485848776e-11,2.8046364177662948e-14,3.7498542120498183e-11,2.0277043752013899e-14,6.0850443384848277e-15,2.9836814845793082e-27
4.061632688285638e-11,0.11224537292326786,0.0,0.0,0.0,0.0,0.99999998354908803,1.6345457350321477e-08,5.2673680512767028e-11,5.4909526323938789e-14,5.2674347299962088e-11,3.9702812730132214e-14,1.1914655970643415e-14,1.1869724922343982e-26
6.401133136570356e-11,0.11224537345507415,0.0,0.0,0.0,0.0,0.99999997407326735,2.5760391467089221e-08,8.3038011340215328e-11,1.3574756482079656e-13,8.3039689884745339e-11,9.8175208863188537e-14,2.9462154187842977e-14,7.7550961891115193e-26
9.999999999999999e-11,0.11224537451869551,0.0,0.0,0.0,0.0,0.99999995949642195,4.0243367387586983e-08,1.2978243306161756e-10,3.3067883535211704e-13,1.2978664631668632e-10,2.3924304874717563e-13,7.1797003537244794e-14,5.215940956909771e-25
1.1080134033139794e-10,0.11224537451869551,0.0,0.0,0.0,0.0,0.99999995512141593,4.459015083016991e-08,1.4382014512027819e-10,4.0587422832269787e-13,1.4382535047695777e-10,2.9367079782411812e-13,8.8131005323689396e-14,7.3598007020241901e-25
1.575913492970923e-10,0.11224537558232865,0.0,0.0,0.0,0.0,0.99999993616928429,6.3419765023566206e-08,2.0467351663231505e-10,8.2060124857630188e-13,2.046843694081276e-10,5.9398455919072802e-13,1.782575469990382e-13,2.7697357077415664e-24
2.0438135826278666e-10,0.11224537664597352,0.0,0.0,0.0,0.0,0.99999991721687187,8.2249234034357919e-08,2.6559804444091883e-10,1.3799282649319033e-12,2.6561682742526939e-10,9.9923365711536165e-13,2.9987803248142864e-13,7.3751100068149095e-24
2.5117136722848103e-10,0.11224537770963018,0.0,0.0,0.0,0.0,0.99999989826417945,1.0107855784957057e-07,3.2659364434355108e-10,2.0838545240340631e-12,3.2662280763821015e-10,1.5095388032611042e-12,4.5302989393062555e-13,1.6145175290586927e-23
3.4475138515986976e-10,0.11224537983697887,0.0,0.0,0.0,0.0,0.99999986035795174,1.3873676984571972e-07,4.4879774891087129e-10,3.9255014093583311e-12,4.4885564154872184e-10,2.8457636590747395e-12,8.5406663552442531e-13,5.4168503660429625e-23
4.383314030912585e-10,0.11224538196437485,0.0,0.0,0.0,0.0,0.99999982245059948,1.7639440090916769e-07,5.7128515748896529e-10,6.3455346548060399e-12,5.7138353400281369e-10,4.6036240181979416e-12,1.3816684340066977e-12,1.3604703255403176e-22
5.319114210226472e-10,0.11224538409181815,0.0,0.0,0.0,0.0,0.99999978454212246,2.1405145093178744e-07,6.9405516446823138e-10,9.3439464856139385e-12,6.9420717994950256e-10,6.7841334274294081e-12,2.0361524442738739e-12,2.8715845442856665e-22
6.25491438954036e-10,0.11224538621930896,0.0,0.0,0.0,0.0,0.99999974663251934,2.5170791980650358e-07,8.1710707379835719e-10,1.2920729057551773e-11,8.1732726472155532e-10,9.3882939501108745e-12,2.8178339602748977e-12,5.389882914456773e-22
8.126514748168134e-10,0.11224539047443344,0.0,0.0,0.0,0.0,0.99999967080992835,3.2701911370148551e-07,1.064053954372027e-09,2.1809376259086945e-11,1.0644593546053728e-09,1.5871393337521393e-11,4.7640050928106736e-12,1.5057236432151108e-21
9.810955070933133e-10,0.11224539430420884,0.0,0.0,0.0,0.0,0.99999960256573261,3.9479719964189466e-07,1.2872635676022097e-09,3.1787110653269979e-11,1.2878986374654245e-09,2.3164740996302868e-11,6.9536507411934644e-12,3.1330559077184657e-21
9.999999999999999e-10,0.11224539813413971,0.0,0.0,0.0,0.0,0.99999959490645007,4.0240382433041956e-07,1.3123708395995725e-09,3.3023863158588482e-11,1.3130357637262462e-09,2.406977536850346e-11,7.2253817292459595e-12,3.3738432733838828e-21
1.149539539369813e-09,0.11224539813413971,0.0,0.0,0.0,0.0,0.9999995343178697,4.6257340105002423e-07,1.51137620603743e-09,4.3638648486739709e-11,1.5123085589965603e-09,3.1845699753728794e-11,9.5601990365712759e-12,5.7776879053831875e-21
1.3179835716463128e-09,0.11224540196422647,0.0,0.0,0.0,0.0,0.99999946606633261,5.3034771731975971e-07,1.7363880384414459e-09,5.736394567745672e-11,1.7376928897255058e-09,4.1919857453808588e-11,1.258545898281756e-11,9.7676857341784262e-21
1.4864276039228125e-09,0.11224540579446986,0.0,0.0,0.0,0.0,0.99999939781111458,5.981201478448825e-07,1.9622952641477567e-09,7.2962958163980531e-11,1.964055369516758e-09,5.3392778875911939e-11,1.6031247124886925e-11,1.5466376120557705e-20
1.6548716361993123e-09,0.11224540962487045,0.0,0.0,0.0,0.0,0.99999932955220905,6.6589069201901257e-07,2.1890941121606775e-09,9.0435641903207633e-11,2.1913997084682562e-09,6.6270006667871738e-11,1.9899387585746236e-11,2.3268043167139786e-20
1.9917597007523117e-09,0.11224541728614537,0.0,0.0,0.0,0.0,0.99999919302330953,8.0142611888861808e-07,2.645351730985021e-09,1.3100184711982512e-10,2.6490486640185769e-09,9.6259444923022128e-11,2.8910054893209981e-11,4.6878194642918559e-20
2.3286477653053112e-09,0.11224542494805596,0.0,0.0,0.0,0.0,0.9999990564795801,9.3695399307687868e-07,3.1051313140876473e-09,1.7906220962337841e-10,3.1106688484867339e-09,1.3193206409326855e-10,3.9632192166282033e-11,8.4246398233081223e-20
2.6655358298583107e-09,0.11224543261060668,0.0,0.0,0.0,0.0,0.99999891992096934,1.0724743097321037e-06,3.5684037731518694e-09,2.346163783151197e-10,3.576288860241139e-09,1.7333137665381858e-10,5.2080644090986203e-11,1.3936210198550002e-19
3.3393119589643097e-09,0.11224544793764693,0.0,0.0,0.0,0.0,0.99999864675889172,1.3434922510400575e-06,4.5053131962521797e-09,3.682047331220281e-10,4.5196405233659949e-09,2.7348239831971179e-10,8.2216368521534596e-11,3.1974471767405714e-19
3.92497761891102e-09,0.11224546126247577,0.0,0.0,0.0,0.0,0.9999984092696752,1.5790442638616847e-06,5.3307856214905413e-09,5.0867196404539814e-10,5.3528887527913592e-09,3.7955101696095693e-10,1.1416346986379026e-10,5.7594136492484414e-19
4.51064327885773e-09,0.11224547458930341,0.0,0.0,0.0,0.0,0.99999817173473826,1.81457336657567e-06,6.1664164860142933e-09,6.7178223869572155e-10,6.198616191237253e-09,5.0353569533911784e-10,1.5154472433078458e-10,9.5100727190201825e-19
5.096308938804441e-09,0.11224548791815288,0.0,0.0,0.0,0.0,0.99999793415381133,2.0500795336997905e-06,7.0120671637398001e-09,8.5753373272014385e-10,7.0569588532631424e-09,6.4565406382685787e-10,1.9444135417627056e-10,1.4711553186494247e-18
5.681974598751152e-09,0.11224550124904653,0.0,0.0,0.0,0.0,0.99999769652662762,2.2855627397537647e-06,7.8676028325473523e-09,1.0659246277847496e-09,7.9280489385091343e-09,8.0612081125483939e-10,2.4293544654494184e-10,2.1633678191467887e-18
6.267640258697863e-09,0.11224551458200664,0.0,0.0,0.0,0.0,0.99999745885292246,2.5210229592590354e-06,8.7328923833166322e-09,1.2969531116718114e-09,8.812014922518564e-09,9.8514775540166369e-10,2.9710993302009873e-10,3.055306270460055e-18
6.853305918644573e-09,0.1122455279170551,0.0,0.0,0.0,0.0,0.99999722113243339,2.7564601667386749e-06,9.6078083140958004e-09,1.550617378375947e-09,9.7089816624718085e-09,1.1829439243956121e-09,3.5704856519486663e-10,4.1752309619145052e-18
8.024637238537995e-09,0.11224555459350302,0.0,0.0,0.0,0.0,0.99999674555006035,3.2272654437208925e-06,1.1386026785177151e-08,2.1258460677736845e-09,1.1542399305130756e-08,1.6356665310894767e-09,4.9455724444057695e-10,7.2147472498345205e-18
9.195968558431416e-09,0.11224558127855944,0.0,0.0,0.0,0.0,0.99999626977744294,3.6979783669141032e-06,1.3201306686873645e-08,2.7915963755064949e-09,1.342923203992336e-08,2.1659078991905361e-09,6.5614704643031731e-10,1.151788731311883e-17
9.999999999999999e-09,0.11224560797238897,0.0,0.0,0.0,0.0,0.99999594308391504,4.0210340617592006e-06,1.4468343436357234e-08,3.3009709893464004e-09,1.4755775896354532e-08,2.5755672203147522e-09,7.8136551097149149e-10,1.5328590220159115e-17
1.0367299878324838e-08,0.11224560797238897,0.0,0.0,0.0,0.0,0.99999579381254444,4.1685987325530196e-06,1.5052747899029787e-08,3.5478540862491852e-09,1.5370358416676798e-08,2.7752474860217415e-09,8.4251520140096295e-10,1.7327322494001737e-17
1.153863119821826e-08,0.11224563467515207,0.0,0.0,0.0,0.0,0.99999531765335392,4.6391263368915818e-06,1.693949904407985e-08,4.3946050923255478e-09,1.7366608055293024e-08,3.4652270092792421e-09,1.0543699824021503e-09,2.4892269263969631e-17
1.2709962518111681e-08,0.11224566138700501,0.0,0.0,0.0,0.0,0.99999484129788707,5.1095609762009586e-06,1.8860755073733762e-08,5.331835395840044e-09,1.9418764056820205e-08,4.2373523026422613e-09,1.2924301476473328e-09,3.4468310658768841e-17
1.3881293838005102e-08,0.1122456881081004,0.0,0.0,0.0,0.0,0.99999436474418224,5.5799024467673969e-06,2.0815754701296012e-08,6.3595311108473072e-09,2.1527565568869382e-08,5.0930952904669083e-09,1.5574243475732536e-09,4.6316679462977799e-17
1.5052625157898524e-08,0.11224571483858727,0.0,0.0,0.0,0.0,0.99999388799030198,6.0501505448904496e-06,2.2803777658464595e-08,7.4776784657014101e-09,2.3693710526525269e-08,6.0338960949612041e-09,1.8500904887839435e-09,6.0703781916865504e-17
1.6223956477791945e-08,0.11224574157861124,0.0,0.0,0.0,0.0,0.99999341103432893,6.5203050668819439e-06,2.4824142301086987e-08,8.6862638051758351e-09,2.5917858044592875e-08,7.0611648730460699e-09,2.1711751766068596e-09,7.7901651603112807e-17
1.7395287797685367e-08,0.11224576832831455,0.0,0.0,0.0,0.0,0.99999293387436705,6.9903658090651385e-06,2.6876204039719186e-08,9.985273591772353e-09,2.8200629985641974e-08,8.1762830215984906e-09,2.5214333509392891e-09,9.818837131279786e-17
1.856661911757879e-08,0.11224579508783654,0.0,0.0,0.0,0.0,0.99999245650853885,7.4603325677731035e-06,2.895935346279241e-08,1.1374694407125418e-08,3.0542612835273615e-08,9.3806046215328062e-09,2.9016278535767676e-09,1.2184726343216077e-16
1.973795043747221e-08,0.11224582185731365,0.0,0.0,0.0,0.0,0.99999197893498626,7.9302051393468278e-06,3.1073013983618609e-08,1.2854512953722013e-08,3.2944360053316101e-08,1.067545824783266e-08,3.3125288852887111e-09,1.4916580510410601e-16
2.090928175736563e-08,0.11224584863687964,0.0,0.0,0.0,0.0,0.99999150115186752,8.399983320134279e-06,3.3216639656497279e-08,1.4424716056626375e-08,3.5406394256108961e-08,1.2062148645482435e-08,3.7549134977995839e-09,1.8043618089843026e-16
2.2080613077259053e-08,0.11224587542666559,0.0,0.0,0.0,0.0,0.99999102315735722,8.8696669064909682e-06,3.538971404679942e-08,1.6085290664505551e-08,3.7929208345535539e-08,1.3541957591906945e-08,4.2295653262428733e-09,2.159567647099908e-16
2.3251944397152475e-08,0.1122459022268001,0.0,0.0,0.0,0.0,0.99999054494964612,9.3392556947792975e-06,3.7591748963222544e-08,1.7836223850505369e-08,4.0513266775773633e-08,1.5116144870962317e-08,4.7372742954652464e-09,2.5603116555609791e-16
2.4423275717045896e-08,0.11224592903740963,0.0,0.0,0.0,0.0,0.99999006652693967,9.8087494813664155e-06,3.9822282635720622e-08,1.9677502813278952e-08,4.3159007374044411e-08,1.678594967833352e-08,5.2788362034981679e-09,3.0096602044602197e-16
2.5594607036939318e-08,0.11224595585861837,0.0,0.0,0.0,0.0,0.99998958788745662,1.0278148062622717e-05,4.208087770868997e-08,2.1609114878278489e-08,4.5866843346081426e-08,1.8552592165141332e-08,5.8550522583778997e-09,3.5107155693890727e-16
2.676593835683274e-08,0.11224598269054843,0.0,0.0,0.0,0.0,0.99998910902942939,1.0747451234922736e-05,4.4367119948652983e-08,2.3631047498893214e-08,4.8637164567631778e-08,2.0417274423062194e-08,6.4667287707906955e-09,4.0666451774795763e-16
2.793726967672616e-08,0.11224600953331992,0.0,0.0,0.0,0.0,0.99998862995110294,1.1216658794646784e-05,4.6680617745326869e-08,2.5743288256991699e-08,5.1470338083069499e-08,2.2381180859154195e-08,7.1146770298549335e-09,4.6806792712592868e-16
2.9108600996619582e-08,0.112246036387051,0.0,0.0,0.0,0.0,0.99998815065073421,1.1685770538179876e-05,4.9021001243474846e-08,2.7945824863164297e-08,5.4366708972957464e-08,2.444547886668539e-08,7.7997131059687747e-09,5.3560684937942079e-16
3.0279932316513e-08,0.1122460632518583,0.0,0.0,0.0,0.0,0.9999876711265917,1.2154786261908226e-05,5.1387920316946637e-08,3.0238645157470082e-08,5.7326602378708563e-08,2.6611320393749835e-08,8.5226573937412781e-09,6.0960745912816683e-16
